6.174211  0.560282
6.178201  1.611109
6.182171  2.099335
6.214047  1.925312
6.216916  1.454959
6.219370  1.122284
6.221334  1.095779
6.223783  1.282336
6.225947  1.523798
6.228095  1.740843
6.230352  1.942617
6.234195  2.160576
6.238185  2.396168
6.242188  2.624196
6.246185  2.825518
6.250186  3.002955
6.254195  3.169143
6.258199  3.328686
6.262185  3.475236
6.266188  3.603622
6.270185  3.722849
6.274188  3.855328
6.278193  4.021371
6.282187  4.224027
6.286187  4.447597
6.290195  4.668016
6.294193  4.864194
6.298188  5.021451
6.302185  5.128980
6.306225  5.182614
6.310193  5.196449
6.314190  5.208114
6.318195  5.262040
6.322186  5.381217
6.326191  5.556406
6.330222  5.762867
6.334185  5.981914
6.338277  6.202231
6.342207  6.404932
6.346184  6.558772
6.350189  6.640144
6.354184  6.659200
6.358181  6.659664
6.362183  6.688080
6.366208  6.764949
6.370190  6.885372
6.374189  7.038502
6.378199  7.217207
6.382192  7.410068
6.386189  7.592165
6.390197  7.728285
6.394197  7.783879
6.398203  7.732196
6.402199  7.554982
6.406448  7.244901
6.410195  6.815349
6.414240  6.306803
6.418249  5.774481
6.422174  5.265196
6.426256  4.807820
6.430193  4.422497
6.434197  4.128812
6.438189  3.937901
6.442205  3.835662
6.446397  3.775556
6.450189  3.692900
6.454187  3.536623
6.458317  3.299185
6.462188  3.020495
6.466198  2.756826
6.470260  2.537585
6.474464  2.350100
6.478191  2.164433
6.482187  1.966027
6.486188  1.763541
6.490169  1.574402
6.494195  1.409239
6.498202  1.268022
6.502199  1.146130
6.506190  1.041278
6.510197  0.955295
6.514457  0.890910
6.518195  0.845762
6.522188  0.808340
6.526187  0.763214
6.530189  0.704566
6.534195  0.644241
6.538187  0.603338
6.542189  0.593470
6.546188  0.605573
6.550188  0.617129
6.554195  0.609250
6.558188  0.575692
6.562188  0.518094
6.566189  0.438446
6.570200  0.338638
6.574192  0.222571
6.578396  0.092525
6.582192 -0.056640
6.586315 -0.235679
6.590195 -0.450988
6.594187 -0.696004
6.598253 -0.952865
6.602187 -1.203740
6.606188 -1.440223
6.610187 -1.660307
6.614197 -1.858356
6.618197 -2.023011
6.622197 -2.146116
6.626357 -2.229855
6.630192 -2.282671
6.634194 -2.310515
6.638168 -2.314521
6.642165 -2.296219
6.646195 -2.261959
6.650193 -2.220297
6.654190 -2.177094
6.658200 -2.135668
6.662186 -2.098351
6.666237 -2.063240
6.670195 -2.022459
6.674183 -1.969200
6.678242 -1.904897
6.682199 -1.836245
6.686198 -1.766905
6.690322 -1.691955
6.694188 -1.595771
6.698195 -1.455820
6.702197 -1.256246
6.706187 -1.002202
6.710196 -0.718377
6.714199 -0.431343
6.718185 -0.155141
6.722195  0.103386
6.726192  0.328060
6.730175  0.492782
6.734201  0.584090
6.738189  0.618120
6.742208  0.628570
6.746182  0.640183
6.750197  0.654553
6.754193  0.653831
6.758197  0.612016
6.762190  0.506750
6.766197  0.329504
6.770189  0.090348
6.774191 -0.187006
6.778190 -0.477866
6.782190 -0.767383
6.786197 -1.050947
6.790191 -1.325174
6.794190 -1.579090
6.798189 -1.794839
6.802189 -1.957748
6.806197 -2.065777
6.810197 -2.128448
6.814199 -2.154700
6.818230 -2.139780
6.822276 -2.065114
6.826384 -1.913952
6.830192 -1.688980
6.834189 -1.419343
6.838198 -1.156559
6.842191 -0.959562
6.846190 -0.870049
6.850186 -0.891875
6.854231 -0.986957
6.858190 -1.078655
6.862188 -1.050861
6.866188 -0.761195
6.870196 -0.100110
6.874188  0.912940
6.878195  2.063653
6.882187  2.987493
6.886187  3.339008
6.890188  2.984687
6.894200  2.066152
6.898192  0.885097
6.902189 -0.274586
6.906190 -1.243258
6.910197 -1.954239
6.914188 -2.396172
6.918399 -2.588688
6.922205 -2.583003
6.926197 -2.459694
6.930197 -2.305060
6.934187 -2.176899
6.938186 -2.090790
6.942193 -2.038089
6.946203 -2.009890
6.950263 -2.002373
6.954193 -2.008781
6.958187 -2.014475
6.962188 -2.001169
6.966202 -1.956390
6.970248 -1.880391
6.974191 -1.784467
6.978190 -1.683062
6.982190 -1.587949
6.986190 -1.506301
6.990202 -1.437510
6.994192 -1.369617
6.998199 -1.283729
7.002190 -1.169055
7.006190 -1.038027
7.010202 -0.925818
7.014192 -0.869908
7.018190 -0.885212
7.022206 -0.956611
7.026461 -1.053787
7.030190 -1.153102
7.034195 -1.248353
7.038187 -1.344405
7.042186 -1.442703
7.046187 -1.532318
7.050198 -1.593339
7.054185 -1.611784
7.058182 -1.593929
7.062196 -1.560640
7.066196 -1.525040
7.070187 -1.482780
7.074318 -1.425627
7.078192 -1.356625
7.082189 -1.288418
7.086197 -1.229981
7.090198 -1.178216
7.094199 -1.122420
7.098197 -1.054795
7.102190 -0.977320
7.106189 -0.902918
7.110301 -0.851797
7.114197 -0.841529
7.118188 -0.872048
7.122171 -0.917036
7.126197 -0.938135
7.130194 -0.917966
7.134187 -0.877429
7.138181 -0.854181
7.142196 -0.867416
7.146254 -0.907004
7.150194 -0.950502
7.154315 -0.984609
7.158197 -1.012593
7.162187 -1.046420
7.166202 -1.094055
7.170192 -1.153443
7.174399 -1.216626
7.178197 -1.277880
7.182187 -1.337449
7.186187 -1.398639
7.190189 -1.463190
7.194202 -1.529268
7.198191 -1.591935
7.202189 -1.645366
7.206190 -1.685498
7.210189 -1.708737
7.214171 -1.706733
7.218381 -1.667141
7.222191 -1.584803
7.226248 -1.469271
7.230244 -1.337435
7.234165 -1.203798
7.238367 -1.081520
7.242501 -0.983724
7.246167 -0.914925
7.250469 -0.866561
7.254185 -0.827555
7.258197 -0.795517
7.262190 -0.775716
7.266189 -0.775536
7.270199 -0.802324
7.274192 -0.860394
7.278191 -0.945142
7.282191 -1.041594
7.286189 -1.131050
7.290198 -1.199090
7.294189 -1.239218
7.298190 -1.253447
7.302191 -1.250305
7.306190 -1.239438
7.310202 -1.226647
7.314191 -1.214597
7.318199 -1.208205
7.322191 -1.217213
7.326190 -1.249469
7.330197 -1.298530
7.334197 -1.340497
7.338369 -1.349375
7.342188 -1.317302
7.346187 -1.258582
7.350188 -1.198279
7.354187 -1.160663
7.358196 -1.161085
7.362188 -1.197185
7.366188 -1.245305
7.370187 -1.271770
7.374188 -1.254537
7.378195 -1.197475
7.382188 -1.125157
7.386187 -1.063291
7.390188 -1.020708
7.394187 -0.986722
7.398196 -0.945823
7.402187 -0.896491
7.406188 -0.855272
7.410187 -0.840378
7.414188 -0.850054
7.418197 -0.856964
7.422184 -0.824777
7.426319 -0.736327
7.430304 -0.613939
7.434180 -0.510733
7.438197 -0.473809
7.442318 -0.512611
7.446188 -0.598710
7.450193 -0.687200
7.454187 -0.738685
7.458199 -0.734259
7.462199 -0.682154
7.466201 -0.612188
7.470318 -0.558649
7.474190 -0.542032
7.478190 -0.563278
7.482190 -0.614084
7.486190 -0.689764
7.490197 -0.789464
7.494189 -0.907781
7.498190 -1.032368
7.502208 -1.150433
7.506190 -1.254732
7.510197 -1.342881
7.514173 -1.414589
7.518197 -1.473031
7.522198 -1.526660
7.526196 -1.584473
7.530173 -1.647962
7.534184 -1.709124
7.538197 -1.757128
7.542199 -1.787570
7.546199 -1.808370
7.550189 -1.841533
7.554190 -1.918570
7.558190 -2.064378
7.562208 -2.275760
7.566378 -2.512062
7.570199 -2.701739
7.574200 -2.750902
7.578189 -2.552267
7.582190 -2.014054
7.586189 -1.117129
7.590198  0.024893
7.594189  1.150319
7.598190  1.922660
7.602206  2.085260
7.606191  1.602629
7.610189  0.671863
7.614190 -0.404291
7.618190 -1.369703
7.622316 -2.088559
7.626189 -2.535222
7.630187 -2.751050
7.634187 -2.804696
7.638202 -2.765456
7.642302 -2.687567
7.646197 -2.601250
7.650190 -2.511401
7.654190 -2.408956
7.658190 -2.291844
7.662189 -2.179589
7.666325 -2.107012
7.670190 -2.101057
7.674199 -2.161668
7.678198 -2.263916
7.682197 -2.376977
7.686190 -2.479531
7.690191 -2.558978
7.694199 -2.602749
7.698189 -2.597564
7.702189 -2.538443
7.706189 -2.432156
7.710190 -2.285107
7.714197 -2.090284
7.718190 -1.834068
7.722189 -1.516045
7.726190 -1.153325
7.730202 -0.760268
7.734185 -0.330698
7.738196  0.146774
7.742199  0.652252
7.746199  1.130850
7.750199  1.543541
7.754191  1.911470
7.758189  2.293758
7.762190  2.731249
7.766202  3.221377
7.770193  3.734526
7.774461  4.242337
7.778386  4.734233
7.782187  5.216553
7.786196  5.701354
7.790187  6.194770
7.794188  6.690325
7.798188  7.168468
7.802190  7.603749
7.806195  7.978935
7.810190  8.295991
7.814194  8.571331
7.818196  8.818715
7.822187  9.036985
7.826165  9.213061
7.830163  9.335726
7.834185  9.407283
7.838177  9.442386
7.842181  9.456931
7.846407  9.460725
7.850193  9.458992
7.854187  9.454494
7.858263  9.448001
7.862191  9.443953
7.866199  9.458161
7.870182  9.517348
7.874196  9.650693
7.878280  9.873869
7.882274 10.160290
7.886192 10.416209
7.890189 10.497679
7.894186 10.277467
7.898195  9.715169
7.902188  8.875491
7.906187  7.888764
7.910199  6.892242
7.914202  5.987617
7.918198  5.223766
7.922190  4.598727
7.926197  4.074877
7.930190  3.603259
7.934189  3.147569
7.938190  2.693274
7.942327  2.238616
7.946199  1.783271
7.950197  1.329552
7.954190  0.890173
7.958197  0.486384
7.962197  0.133821
7.966190 -0.169724
7.970197 -0.441843
7.974190 -0.701135
7.978189 -0.953899
7.982190 -1.191788
7.986402 -1.399884
7.990195 -1.565723
7.994188 -1.682370
7.998199 -1.751257
8.002197 -1.789339
8.006187 -1.827837
8.010187 -1.894597
8.014195 -1.997915
8.018188 -2.129201
8.022187 -2.276772
8.026188 -2.434649
8.030187 -2.601616
8.034195 -2.775544
8.038187 -2.949254
8.042205 -3.111437
8.046199 -3.252366
8.050189 -3.369982
8.054197 -3.470413
8.058198 -3.561839
8.062189 -3.647315
8.066194 -3.722939
8.070403 -3.782545
8.074192 -3.824014
8.078189 -3.850394
8.082331 -3.864085
8.086190 -3.859909
8.090197 -3.826585
8.094191 -3.759037
8.098569 -3.669145
8.102258 -3.582640
8.106195 -3.526071
8.110200 -3.514023
8.114190 -3.542372
8.118197 -3.590329
8.122198 -3.630573
8.126197 -3.646142
8.130189 -3.650992
8.134261 -3.693829
8.138199 -3.820780
8.142194 -4.020957
8.146198 -4.217980
8.150197 -4.320319
8.154197 -4.276151
8.158182 -4.090405
8.162188 -3.807446
8.166313 -3.479658
8.170190 -3.142194
8.174199 -2.808003
8.178200 -2.478925
8.182189 -2.155319
8.186188 -1.835948
 8.190198 -0.377754
 8.194192 -0.177522
 8.198446  0.005624
 8.202190  0.152167
 8.206197  0.245441
 8.210190  0.287011
 8.214240  0.310630
 8.218199  0.369801
 8.222258  0.492842
 8.226199  0.648305
 8.230191  0.766717
 8.234258  0.798252
 8.238197  0.744370
 8.242190  0.640837
 8.246197  0.524167
 8.250275  0.417607
 8.254195  0.338601
 8.258365  0.302472
 8.262301  0.309342
 8.266199  0.336781
 8.270199  0.357844
 8.274190  0.362296
 8.278196  0.352047
 8.282206  0.320296
 8.286189  0.243862
 8.290190  0.098537
 8.294189 -0.119296
 8.298190 -0.384650
 8.302386 -0.647018
 8.306192 -0.826429
 8.310189 -0.805022
 8.314202 -0.448047
 8.318192  0.324359
 8.322458  1.446898
 8.326195  2.669541
 8.330200  3.624083
 8.334385  3.988776
 8.338185  3.654456
 8.342194  2.766824
 8.346181  1.617698
 8.350188  0.488294
 8.354195 -0.442204
 8.358196 -1.104812
 8.362185 -1.512788
 8.366183 -1.730505
 8.370195 -1.841498
 8.374360 -1.916083
 8.378188 -1.988197
 8.382188 -2.051060
 8.386199 -2.073749
 8.390311 -2.027767
 8.394197 -1.905526
 8.398173 -1.729983
 8.402169 -1.562912
 8.406201 -1.485879
 8.410176 -1.535650
 8.414163 -1.656570
 8.418162 -1.737960
 8.422264 -1.701531
 8.426199 -1.554085
 8.430195 -1.368215
 8.434197 -1.215640
 8.438183 -1.113824
 8.442192 -1.030838
 8.446446 -0.931917
 8.450285 -0.813395
 8.454261 -0.696499
 8.458167 -0.601539
 8.462167 -0.533236
 8.466378 -0.483957
 8.470192 -0.443197
 8.474188 -0.402863
 8.478373 -0.357472
 8.482319 -0.303546
 8.486198 -0.240398
 8.490197 -0.170401
 8.494202 -0.096741
 8.498192 -0.021049
 8.502205  0.054740
 8.506171  0.125475
 8.510198  0.187569
 8.514198  0.248335
 8.518196  0.323496
 8.522197  0.420793
 8.526188  0.531335
 8.530197  0.639771
 8.534198  0.735654
 8.538189  0.812303
 8.542190  0.863241
 8.546189  0.885991
 8.550197  0.887040
 8.554188  0.879971
 8.558187  0.878029
 8.562509  0.886661
 8.566199  0.901203
 8.570197  0.912998
 8.574190  0.919205
 8.578189  0.924436
 8.582190  0.930700
 8.586202  0.928298
 8.590193  0.901186
 8.594189  0.841812
 8.598202  0.758043
 8.602192  0.666149
 8.606190  0.579639
 8.610197  0.503188
 8.614190  0.432870
 8.618190  0.361243
 8.622189  0.284548
 8.626189  0.206653
 8.630197  0.136532
 8.634189  0.082539
 8.638318  0.048646
 8.642322  0.034520
 8.646233  0.037522
 8.650190  0.053226
 8.654275  0.073791
 8.658192  0.088409
 8.662197  0.088984
 8.666187  0.077172
 8.670195  0.065524
 8.674311  0.069520
 8.678188  0.095688
 8.682448  0.136115
 8.686188  0.174447
 8.690187  0.198417
 8.694188  0.208639
 8.698187  0.215376
 8.702196  0.225232
 8.706187  0.232747
 8.710361  0.230571
 8.714187  0.228993
 8.718290  0.256510
 8.722195  0.332024
 8.726190  0.440136
 8.730194  0.541926
 8.734440  0.607637
 8.738426  0.633802
 8.742193  0.635868
 8.746181  0.635092
 8.750233  0.649123
 8.754193  0.683415
 8.758191  0.729991
 8.762319  0.778251
 8.766202  0.824249
 8.770494  0.867834
 8.774256  0.905672
 8.778190  0.929837
 8.782195  0.931420
 8.786188  0.905104
 8.790189  0.853035
 8.794188  0.786439
 8.798187  0.722050
 8.802196  0.673684
 8.806187  0.644184
 8.810195  0.623988
 8.814195  0.599529
 8.818187  0.565418
 8.822196  0.527716
 8.826195  0.496055
 8.830182  0.476333
 8.834199  0.470586
 8.838198  0.477656
 8.842198  0.489915
 8.846189  0.492984
 8.850191  0.475736
 8.854184  0.442218
 8.858202  0.409311
 8.862198  0.391257
 8.866197  0.389831
 8.870540  0.397735
 8.874185  0.404257
 8.878198  0.397974
 8.882190  0.372072
 8.886189  0.330200
 8.890191  0.284995
 8.894189  0.250934
 8.898198  0.238889
 8.902189  0.253981
 8.906190  0.294913
 8.910202  0.355249
 8.914192  0.426789
 8.918189  0.502494
 8.922189  0.577863
 8.926189  0.652596
 8.930199  0.732101
 8.934260  0.824113
 8.938184  0.929741
 8.942206  1.037162
 8.946192  1.125926
 8.950189  1.179230
 8.954197  1.192690
 8.958197  1.171694
 8.962190  1.121569
 8.966250  1.041130
 8.970194  0.926080
 8.974190  0.779813
 8.978190  0.619452
 8.982189  0.466637
 8.986202  0.332239
 8.990192  0.214706
 8.994189  0.111922
 8.998197  0.027045
 9.002189 -0.039076
 9.006190 -0.093756
 9.010191 -0.143761
 9.014189 -0.182826
 9.018328 -0.195930
 9.022257 -0.180529
 9.026185 -0.160426
 9.030194 -0.173029
 9.034231 -0.241324
 9.038194 -0.359743
 9.042192 -0.503372
 9.046189 -0.636168
 9.050189 -0.694645
 9.054198 -0.567014
 9.058197 -0.117561
 9.062190  0.727293
 9.066371  1.879890
 9.070181  3.060528
 9.074500  3.891511
 9.078183  4.088298
 9.082188  3.616726
 9.086181  2.686764
 9.090189  1.601750
 9.094187  0.606592
 9.098190 -0.167682
 9.102183 -0.684749
 9.106188 -0.968190
 9.110182 -1.073576
 9.114193 -1.065089
 9.118184 -0.997473
 9.122187 -0.907817
 9.126181 -0.817433
 9.130189 -0.737391
 9.134213 -0.671263
 9.138193 -0.616459
 9.142183 -0.568015
 9.146195 -0.522975
 9.150185 -0.480860
 9.154190 -0.440247
 9.158224 -0.397679
 9.162190 -0.352899
 9.166323 -0.312866
 9.170199 -0.284112
 9.174188 -0.258758
 9.178232 -0.215191
 9.182186 -0.140488
 9.186181 -0.048269
 9.190182  0.033231
 9.194179  0.088074
 9.198189  0.122885
 9.202181  0.154180
 9.206196  0.191376
 9.210193  0.231599
 9.214183  0.266217
 9.218191  0.290226
 9.222405  0.306411
 9.226195  0.322008
 9.230182  0.343175
 9.234188  0.373314
 9.238194  0.414104
 9.242206  0.464080
 9.246176  0.516022
 9.250177  0.560813
 9.254192  0.596734
 9.258187  0.631554
 9.262182  0.672946
 9.266187  0.718807
 9.270182  0.758018
 9.274203  0.780430
 9.278185  0.788104
 9.282183  0.797203
 9.286189  0.825442
 9.290196  0.876074
 9.294181  0.934940
 9.298188  0.981620
 9.302189  1.001985
 9.306186  0.993666
 9.310179  0.966280
 9.314190  0.938345
 9.318191  0.926570
 9.322189  0.930145
 9.326182  0.928651
 9.330242  0.902381
 9.334187  0.851574
 9.338193  0.792072
 9.342274  0.740006
 9.346456  0.702892
 9.350320  0.673492
 9.354199  0.630030
 9.358191  0.553179
 9.362189  0.444413
 9.366191  0.323268
 9.370188  0.209822
 9.374191  0.113435
 9.378200  0.034203
 9.382193 -0.032493
 9.386181 -0.095078
 9.390190 -0.162583
 9.394199 -0.235468
 9.398191 -0.301585
 9.402199 -0.346316
 9.406196 -0.366347
 9.410198 -0.370991
 9.414184 -0.371422
 9.418197 -0.371671
 9.422257 -0.370659
 9.426191 -0.370419
 9.430181 -0.378356
 9.434188 -0.399305
 9.438180 -0.427586
 9.442210 -0.450882
 9.446186 -0.462369
 9.450189 -0.466572
 9.454191 -0.473005
 9.458189 -0.485812
 9.462184 -0.499406
 9.466190 -0.502195
 9.470308 -0.484912
 9.474198 -0.450671
 9.478228 -0.422938
 9.482199 -0.440026
 9.486194 -0.523399
 9.490190 -0.636922
 9.494232 -0.696054
 9.498312 -0.646775
 9.502182 -0.524047
 9.506493 -0.409906
 9.510182 -0.353358
 9.514188 -0.350411
 9.518188 -0.379801
 9.522189 -0.433545
 9.526180 -0.515305
 9.530188 -0.620603
 9.534181 -0.724170
 9.538194 -0.789185
 9.542182 -0.792249
 9.546188 -0.742482
 9.550181 -0.677559
 9.554188 -0.638344
 9.558274 -0.641650
 9.562193 -0.674281
 9.566184 -0.712615
 9.570196 -0.746218
 9.574191 -0.781139
 9.578189 -0.821916
 9.582196 -0.855157
 9.586447 -0.857495
 9.590294 -0.821666
 9.594192 -0.768047
 9.598184 -0.727339
 9.602190 -0.717615
 9.606191 -0.737360
 9.610188 -0.769944
 9.614191 -0.791538
 9.618220 -0.784067
 9.622191 -0.747887
 9.626173 -0.699145
 9.630191 -0.650367
 9.634231 -0.594747
 9.638192 -0.513408
 9.642176 -0.399320
 9.646191 -0.269525
 9.650196 -0.149778
 9.654194 -0.050751
 9.658192  0.036955
 9.662193  0.127396
 9.666197  0.221391
 9.670253  0.302280
 9.674198  0.348383
 9.678184  0.349117
 9.682172  0.307287
 9.686184  0.226385
 9.690662  0.101174
 9.694181 -0.072863
 9.698185 -0.278451
 9.702159 -0.468776
 9.706492 -0.591700
 9.710441 -0.632064
 9.714190 -0.626746
 9.718403 -0.628567
 9.722192 -0.658069
 9.726182 -0.697992
 9.730180 -0.727241
 9.734187 -0.743692
 9.738186 -0.753475
 9.742393 -0.756279
 9.746194 -0.752423
 9.750175 -0.757514
 9.754194 -0.800604
 9.758191 -0.905787
 9.762187 -1.075821
 9.766189 -1.287375
 9.770196 -1.485785
 9.774183 -1.571243
 9.778195 -1.401518
 9.782193 -0.846180
 9.786191  0.115867
 9.790191  1.319645
 9.794199  2.434892
 9.798193  3.107968
 9.802199  3.148091
 9.806193  2.616692
 9.810365  1.749680
 9.814184  0.799256
 9.818188 -0.063030
 9.822196 -0.745773
 9.826401 -1.210042
 9.830189 -1.464295
 9.834188 -1.558948
 9.838190 -1.555689
 9.842188 -1.495977
 9.846181 -1.400028
 9.850190 -1.285541
 9.854181 -1.174172
 9.858202 -1.079212
 9.862186 -0.996901
 9.866189 -0.917145
 9.870453 -0.841381
 9.874189 -0.784643
 9.878179 -0.758325
 9.882208 -0.755014
 9.886186 -0.755756
 9.890197 -0.751068
 9.894191 -0.746559
 9.898314 -0.744500
 9.902184 -0.728603
 9.906199 -0.676771
 9.910191 -0.587697
 9.914197 -0.487059
 9.918191 -0.403187
 9.922197 -0.337906
 9.926173 -0.265299
 9.930395 -0.162297
 9.934180 -0.037212
 9.938195  0.079338
 9.942183  0.168689
 9.946189  0.237392
 9.950191  0.298980
 9.954189  0.359469
 9.958191  0.424570
 9.962198  0.504608
 9.966184  0.598455
 9.970193  0.678289
 9.974183  0.705481
 9.978198  0.668337
 9.982194  0.598920
 9.986192  0.545162
 9.990207  0.526585
 9.994197  0.524386
 9.998193  0.516198
10.002303  0.509332
10.006187  0.528010
10.010190  0.571144
10.014184  0.597108
10.018394  0.560983
10.022186  0.471394
10.026190  0.405995
10.030182  0.448073
10.034187  0.592401
10.038190  0.736938
10.042187  0.784706
10.046182  0.727173
10.050187  0.618762
10.054182  0.508083
10.058196  0.413600
10.062183  0.338655
10.066195  0.280595
10.070196  0.226918
10.074200  0.162777
10.078193  0.092535
10.082199  0.044461
10.086184  0.041418
10.090197  0.069541
10.094197  0.089058
10.098440  0.078676
10.102194  0.057454
10.106193  0.057013
10.110191  0.083210
10.114189  0.115749
10.118196  0.139646
10.122388  0.163762
10.126186  0.203416
10.130200  0.251089
10.134193  0.276307
10.138190  0.262105
10.142181  0.234345
10.146197  0.239873
10.150184  0.294150
10.154200  0.362524
10.158193  0.397430
10.162190  0.385260
10.166191  0.350472
10.170190  0.319368
10.174185  0.290256
10.178190  0.242052
10.182183  0.162993
10.186198  0.062490
10.190183 -0.003583
10.194198  0.028043
10.198185  0.053991
10.202195  0.087586
10.206182  0.144679
10.210189  0.212815
10.214181  0.255891
10.218264  0.259155
10.222189  0.259285
10.226171  0.311994
10.230204  0.426011
10.234191  0.544131
10.238185  0.599389
10.242422  0.578393
10.246169  0.518586
10.250174  0.455949
10.254178  0.395800
10.258193  0.334665
10.262195  0.289518
10.266190  0.287326
10.270191  0.328838
10.274202  0.378967
10.278187  0.399514
10.282197  0.382533
10.286184  0.345360
10.290186  0.302936
10.294184  0.259540
10.298201  0.226920
10.302184  0.233743
10.306190  0.302765
10.310191  0.420324
10.314190  0.538957
10.318184  0.614086
10.322189  0.633776
10.326184  0.612343
10.330191  0.567577
10.334191  0.518392
10.338374  0.499161
10.342189  0.552585
10.346195  0.691929
10.350181  0.874915
10.354195  1.028396
10.358189  1.105251
10.362208  1.116560
10.366186  1.108415
10.370199  1.111074
10.374184  1.114386
10.378197  1.089899
10.382192  1.025679
10.386190  0.930447
10.390179  0.810971
10.394187  0.664235
10.398182  0.499451
10.402205  0.354253
10.406187  0.271666
10.410190  0.261404
10.414191  0.295956
10.418191  0.343556
10.422191  0.390239
10.426197  0.425540
10.430184  0.421935
10.434189  0.345896
10.438196  0.190670
10.442192 -0.014344
10.446183 -0.233540
10.450188 -0.456387
10.454309 -0.687906
10.458192 -0.903034
10.462183 -1.010233
10.466190 -0.867662
10.470191 -0.352520
10.474191  0.559395
10.478184  1.746917
10.482192  2.948176
10.486196  3.831163
10.490191  4.130392
10.494183  3.783416
10.498190  2.959258
10.502195  1.946766
10.506197  0.994245
10.510194  0.222996
10.514190 -0.344594
10.518191 -0.705945
10.522199 -0.843881
10.526192 -0.766592
10.530198 -0.554623
10.534190 -0.334443
10.538366 -0.193311
10.542191 -0.129618
10.546197 -0.090144
10.550184 -0.040990
10.554189  0.010231
10.558194  0.050109
10.562191  0.091283
10.566191  0.156298
10.570188  0.240421
10.574191  0.308118
10.578190  0.331311
10.582184  0.322794
10.586190  0.323565
10.590192  0.357679
10.594190  0.405365
10.598183  0.423385
10.602190  0.390668
10.606192  0.332048
10.610498  0.294845
10.614177  0.303705
10.618184  0.346374
10.622328  0.401305
10.626197  0.459666
10.630315  0.513975
10.634190  0.547447
10.638181  0.554103
10.642188  0.561862
10.646190  0.616796
10.650197  0.738538
10.654182  0.898646
10.658195  1.045958
10.662181  1.145209
10.666313  1.185897
10.670626  1.165416
10.674188  1.084407
10.678182  0.965709
10.682298  0.862284
10.686177  0.826117
10.690179  0.865180
10.694496  0.939139
10.698187  0.999314
10.702182  1.026975
10.706187  1.032668
10.710191  1.028783
10.714190  1.013379
10.718191  0.980340
10.722198  0.935261
10.726254  0.892822
10.730365  0.860386
10.734370  0.832325
10.738194  0.802405
10.742193  0.773623
10.746190  0.748581
10.750183  0.714802
10.754190  0.651025
10.758191  0.550688
10.762190  0.430030
10.766305  0.306848
10.770197  0.178958
10.774185  0.034043
10.778199 -0.122857
10.782184 -0.263877
10.786191 -0.362343
10.790183 -0.414826
10.794193 -0.437429
10.798184 -0.445985
10.802208 -0.445614
10.806186 -0.438508
10.810198 -0.431105
10.814165 -0.423448
10.818199 -0.396129
10.822194 -0.323017
10.826196 -0.206596
10.830192 -0.095110
10.834187 -0.049272
10.838159 -0.082919
10.842182 -0.142541
10.846177 -0.156866
10.850165 -0.109487
10.854355 -0.055849
10.858196 -0.063862
10.862179 -0.143134
10.866446 -0.241415
10.870181 -0.307329
10.874178 -0.340628
10.878159 -0.374901
10.882395 -0.426306
10.886183 -0.474115
10.890186 -0.484228
10.894182 -0.434912
10.898186 -0.320693
10.902185 -0.151446
10.906182  0.037479
10.910189  0.182130
10.914195  0.220479
10.918189  0.142474
10.922193  0.003551
10.926181 -0.126803
10.930184 -0.229801
10.934181 -0.340165
10.938187 -0.487293
10.942187 -0.650402
10.946185 -0.780046
10.950180 -0.854554
10.954259 -0.902539
10.958189 -0.966793
10.962192 -1.051059
10.966452 -1.109826
10.970193 -1.096218
10.974183 -1.015635
10.978195 -0.919802
10.982182 -0.848529
10.986187 -0.794610
10.990182 -0.729793
10.994202 -0.646020
10.998186 -0.559768
11.002190 -0.489791
11.006192 -0.449346
11.010190 -0.455710
11.014191 -0.517227
11.018198 -0.591662
11.022194 -0.585858
11.026192 -0.438469
11.030191 -0.193503
11.034189  0.036444
11.038183  0.166039
11.042190  0.181684
11.046183  0.115208
11.050192 -0.001201
11.054193 -0.152639
11.058190 -0.325485
11.062183 -0.489549
11.066195 -0.610065
11.070185 -0.680234
11.074188 -0.732865
11.078182 -0.809778
11.082187 -0.918697
11.086189 -1.025796
11.090187 -1.091812
11.094182 -1.109540
11.098187 -1.103507
11.102181 -1.100499
11.106195 -1.108857
11.110181 -1.124118
11.114189 -1.144546
11.118193 -1.177090
11.122448 -1.234232
11.126179 -1.329875
11.130193 -1.469071
11.134535 -1.618724
11.138189 -1.671346
11.142187 -1.450327
11.146189 -0.794799
11.150189  0.308802
11.154188  1.645568
11.158182  2.825418
11.162187  3.465694
11.166182  3.389774
11.170202  2.695850
11.174186  1.656133
11.178189  0.555073
11.182196 -0.406633
11.186191 -1.124215
11.190185 -1.572873
11.194198 -1.791568
11.198183 -1.853346
11.202189 -1.823952
11.206183 -1.738945
11.210190 -1.613923
11.214191 -1.465382
11.218190 -1.314481
11.222388 -1.174376
11.226204 -1.044686
11.230374 -0.925137
11.234195 -0.829084
11.238188 -0.772952
11.242187 -0.751678
11.246187 -0.735314
11.250187 -0.697259
11.254195 -0.641423
11.258189 -0.594735
11.262188 -0.572952
11.266187 -0.559052
11.270363 -0.520228
11.274195 -0.445332
11.278187 -0.359574
11.282192 -0.300595
11.286198 -0.285522
11.290190 -0.302111
11.294188 -0.320659
11.298202 -0.305509
11.302300 -0.226834
11.306169 -0.083536
11.310187  0.081545
11.314175  0.204413
11.318186  0.250075
11.322196  0.243179
11.326194  0.246374
11.330197  0.302835
11.334218  0.399048
11.338190  0.485207
11.342175  0.527747
11.346194  0.537398
11.350232  0.548598
11.354190  0.579409
11.358193  0.620703
11.362195  0.665360
11.366191  0.732775
11.370196  0.851678
11.374237  1.025956
11.378293  1.227112
11.382323  1.415158
11.386282  1.559177
11.390315  1.643584
11.394363  1.671307
11.398381  1.667625
11.402289  1.665661
11.406283  1.669359
11.410181  1.629285
11.414219  1.469768
11.418308  1.162101
11.450279  0.779218
11.452429  0.457366
11.454613  0.286229
11.456825  0.245337
11.459022  0.248850
11.461388  0.234274
11.463550  0.202728
11.466198  0.185491
11.470180  0.183757
11.474189  0.151938
11.478196  0.044336
11.482307 -0.132260
11.486465 -0.323042
11.490187 -0.477625
11.494188 -0.588942
11.498200 -0.682349
11.502192 -0.777617
11.506189 -0.868468
11.510197 -0.936743
11.514189 -0.978694
11.518189 -1.009690
11.522189 -1.042878
11.526197 -1.072604
11.530190 -1.086183
11.534197 -1.086102
11.538190 -1.090800
11.542189 -1.114573
11.546190 -1.154012
11.550197 -1.193551
11.554189 -1.217188
11.558190 -1.213813
11.562190 -1.179653
11.566190 -1.125217
11.570199 -1.079393
11.574190 -1.073546
11.578190 -1.110622
11.582199 -1.155489
11.586241 -1.165908
11.590464 -1.130211
11.594194 -1.069895
11.598377 -1.012493
11.602194 -0.967601
11.606188 -0.927411
11.610189 -0.888424
11.614194 -0.864422
11.618167 -0.867814
11.622192 -0.883603
11.626194 -0.875619
11.630325 -0.820734
11.634259 -0.729939
11.638247 -0.632320
11.642254 -0.541398
11.646236 -0.442584
11.650291 -0.312036
11.654412 -0.136814
11.658308  0.084633
11.662220  0.344978
11.666195  0.619929
11.670346  0.865105
11.674196  1.034648
11.678187  1.113660
11.682206  1.135039
11.686200  1.157626
11.690195  1.222435
11.694239  1.328028
11.698275  1.438574
11.702190  1.506317
11.706186  1.492508
11.710188  1.381887
11.714185  1.188646
11.718169  0.952468
11.722479  0.722111
11.726189  0.528491
11.730291  0.366277
11.734188  0.208646
11.738187  0.046479
11.742171 -0.096538
11.746561 -0.200711
11.750195 -0.293787
11.754187 -0.434107
11.758188 -0.643933
11.762187 -0.874925
11.766187 -1.050166
11.770196 -1.136266
11.774187 -1.170949
11.778190 -1.224873
11.782364 -1.341953
11.786187 -1.516046
11.790379 -1.712405
11.794187 -1.884418
11.798196 -1.949646
11.802187 -1.766781
11.806188 -1.186312
11.810187 -0.172492
11.814190  1.101104
11.818195  2.281670
11.822188  2.998313
11.826195  3.052044
11.830196  2.498713
11.834197  1.574559
11.838188  0.547632
11.842188 -0.384187
11.846190 -1.111468
11.850195 -1.591875
11.854189 -1.830768
11.858187 -1.867789
11.862188 -1.763238
11.866189 -1.587318
11.870196 -1.412036
11.874187 -1.295631
11.878188 -1.260177
11.882187 -1.284523
11.886188 -1.326972
11.890187 -1.357779
11.894195 -1.369623
11.898181 -1.363081
11.902188 -1.334275
11.906187 -1.282889
11.910195 -1.224196
11.914189 -1.180007
11.918189 -1.155057
11.922189 -1.129374
11.926187 -1.077343
11.930195 -0.988901
11.934187 -0.867629
11.938195 -0.715871
11.942187 -0.535792
11.946187 -0.347648
11.950195 -0.193653
11.954187 -0.108884
11.958187 -0.084976
11.962366 -0.070719
11.966186 -0.018632
11.970194  0.068025
11.974190  0.140969
11.978187  0.160104
11.982188  0.135107
11.986186  0.114433
11.990196  0.141346
11.994187  0.224846
11.998188  0.346471
12.002187  0.482547
12.006188  0.614083
12.010188  0.725494
12.014195  0.812052
12.018195  0.894392
12.022177  1.012665
12.026184  1.191763
12.030161  1.410332
12.034189  1.608342
12.038174  1.726636
12.042194  1.741528
12.046170  1.669392
12.050165  1.547651
12.054194  1.414756
12.058188  1.303485
12.062188  1.239769
12.066195  1.230873
12.070188  1.251652
12.074187  1.255991
12.078187  1.211781
12.082190  1.122981
12.086195  1.015902
12.090187  0.909695
12.094187  0.807477
12.098187  0.715264
12.102187  0.656429
12.106195  0.652705
12.110188  0.690958
12.114187  0.721950
12.118188  0.699942
12.122188  0.619747
12.126195  0.511073
12.130195  0.403572
12.134188  0.308724
12.138194  0.233678
12.142196  0.194903
12.146353  0.204613
12.150188  0.249149
12.154187  0.295775
12.158195  0.325580
12.162186  0.350521
12.166188  0.390366
12.170187  0.438045
12.174188  0.458791
12.178195  0.426753
12.182188  0.355883
12.186187  0.287738
12.190189  0.250034
12.194186  0.233805
12.198197  0.212568
12.202187  0.176591
12.206188 -0.137664
12.210187  0.018971
12.214189  0.144928
12.218195  0.214343
12.222188  0.215684
12.226187  0.157550
12.230188  0.062228
12.234187 -0.045010
12.238191 -0.139274
12.242167 -0.197117
12.246271 -0.207057
12.250197 -0.183066
12.254171 -0.158992
12.258170 -0.159397
12.262171 -0.175413
12.266189 -0.174797
12.270198 -0.135232
12.274189 -0.061958
12.278192  0.025484
12.282189  0.111469
12.286190  0.181636
12.290197  0.213005
12.294325  0.185622
12.298191  0.107582
12.302192  0.015624
12.306189 -0.057351
12.310198 -0.108872
12.314187 -0.153102
12.318197 -0.185976
12.322191 -0.177429
12.326195 -0.102261
12.330196  0.028953
12.334171  0.177814
12.338195  0.317812
12.342195  0.457050
12.346372  0.611534
12.350192  0.763241
12.354181  0.861735
12.358188  0.869132
12.362181  0.793239
12.366196  0.674054
12.370186  0.544452
12.374188  0.409736
12.378188  0.263445
12.382187  0.111920
12.386195 -0.027076
12.390187 -0.146018
12.394187 -0.254808
12.398188 -0.362663
12.402187 -0.461698
12.406195 -0.536372
12.410187 -0.585825
12.414188 -0.627123
12.418189 -0.673492
12.422188 -0.716914
12.426195 -0.740749
12.430187 -0.749509
12.434190 -0.778991
12.438188 -0.871130
12.442187 -1.038473
12.446196 -1.253421
12.450196 -1.462236
12.454204 -1.590538
12.458299 -1.530661
12.462189 -1.152396
12.466189 -0.373479
12.470189  0.743294
12.474189  1.951165
12.478197  2.899023
12.482189  3.302082
12.486190  3.087139
12.490191  2.400375
12.494190  1.487604
12.498197  0.564312
12.502192 -0.236996
12.506189 -0.855153
12.510190 -1.275323
12.514190 -1.510119
12.518197 -1.584060
12.522189 -1.527634
12.526197 -1.385903
12.530190 -1.223063
12.534189 -1.100245
12.538171 -1.038390
12.542195 -1.007333
12.546188 -0.959961
12.550197 -0.877790
12.554189 -0.780238
12.558197 -0.694194
12.562189 -0.624098
12.566189 -0.554653
12.570189 -0.476021
12.574190 -0.396560
12.578197 -0.328423
12.582190 -0.268331
12.586192 -0.201082
12.590189 -0.121383
12.594191 -0.043880
12.598197  0.013583
12.602190  0.052033
12.606190  0.089920
12.610192  0.141511
12.614170  0.204287
12.618199  0.269674
12.622318  0.340299
12.626271  0.430344
12.630196  0.548001
12.634190  0.681953
12.638167  0.809597
12.642163  0.915532
12.646181  0.994740
12.650190  1.041443
12.654183  1.048522
12.658372  1.022192
12.662187  0.988061
12.666187  0.973449
12.670195  0.983074
12.674187  0.997551
12.678187  0.998429
12.682190  0.989372
12.686187  0.986738
12.690195  0.993854
12.694187  0.995734
12.698188  0.981155
12.702188  0.959779
12.706187  0.949352
12.710195  0.950265
12.714188  0.942875
12.718190  0.911986
12.722187  0.866614
12.726188  0.830043
12.730195  0.812671
12.734315  0.799664
12.738318  0.766437
12.742193  0.702998
12.746199  0.619681
12.750190  0.531203
12.754189  0.443298
12.758201  0.357906
12.762321  0.281739
12.766189  0.220407
12.770198  0.169099
12.774191  0.119163
12.778198  0.072652
12.782197  0.041492
12.786197  0.031343
12.790190  0.033201
12.794197  0.033835
12.798190  0.030391
12.802189  0.029583
12.806359  0.031392
12.810189  0.018301
12.814197 -0.032166
12.818189 -0.120685
12.822190 -0.215051
12.826415 -0.272693
12.830194 -0.276571
12.834191 -0.245041
12.838195 -0.206706
12.842189 -0.173250
12.846188 -0.140312
12.850189 -0.106150
12.854190 -0.077684
12.858201 -0.058220
12.862189 -0.039600
12.866189 -0.012469
12.870199  0.019726
12.874189  0.042754
12.878190  0.047360
12.882190  0.038475
12.886189  0.027278
12.890197  0.018411
12.894190  0.009584
12.898190  0.002178
12.902189  0.005624
12.906189  0.027145
12.910198  0.061050
12.914189  0.095188
12.918240  0.127643
12.922248  0.169221
12.926197  0.225938
12.930197  0.285037
12.934198  0.325890
12.938197  0.345581
12.942197  0.366771
12.946185  0.413108
12.950188  0.479445
12.954197  0.534956
12.958190  0.556772
12.962189  0.552852
12.966197  0.548049
12.970183  0.556060
12.974175  0.575919
12.978188  0.612683
12.982235  0.685454
12.986198  0.805113
12.990194  0.949984
12.994195  1.074273
12.998186  1.142642
13.002188  1.151921
13.006187  1.118834
13.010196  1.053345
13.014187  0.950063
13.018190  0.805175
13.022187  0.634917
13.026188  0.469251
13.030195  0.326292
13.034188  0.200097
13.038187  0.077117
13.042188 -0.043036
13.046187 -0.150783
13.050197 -0.244737
13.054187 -0.334464
13.058188 -0.422205
13.062195 -0.490500
13.066195 -0.517769
13.070202 -0.507714
13.074191 -0.497168
13.078189 -0.530184
13.082197 -0.626772
13.086189 -0.779691
13.090188 -0.972791
13.094199 -1.183611
13.098191 -1.355329
13.102181 -1.372543
13.106190 -1.089615
13.110187 -0.414115
13.114370  0.610484
13.118188  1.781904
13.122188  2.792471
13.126202  3.342970
13.130191  3.275820
13.134191  2.651032
13.138189  1.702748
13.142197  0.706152
13.146189 -0.144769
13.150190 -0.777123
13.154189 -1.202465
13.158189 -1.456211
13.162197 -1.562246
13.166197 -1.537579
13.170406 -1.415503
13.174196 -1.252712
13.178195 -1.106565
13.182188 -1.005510
13.186188 -0.945625
13.190188 -0.912618
13.194187 -0.897407
13.198195 -0.889776
13.202188 -0.870092
13.206188 -0.820075
13.210189 -0.742425
13.214187 -0.660900
13.218259 -0.592895
13.222197 -0.524099
13.226197 -0.422245
13.230197 -0.281327
13.234170 -0.139549
13.238200 -0.042211
13.242172  0.004081
13.246170  0.029074
13.250416  0.058253
13.254190  0.087858
13.258187  0.100117
13.262188  0.091799
13.266446  0.080552
13.270195  0.087518
13.274398  0.119782
13.278201  0.169098
13.282190  0.225657
13.286190  0.288896
13.290351  0.358941
13.294182  0.424550
13.298177  0.473002
13.302187  0.507734
13.306181  0.542296
13.310189  0.577140
13.314367  0.594381
13.318358  0.579949
13.322188  0.543492
13.326187  0.509836
13.330186  0.494081
13.334189  0.491674
13.338188  0.491793
13.342188  0.492318
13.346189  0.497077
13.350189  0.502735
13.354194  0.496552
13.358187  0.470264
13.362188  0.431186
13.366187  0.392842
13.370196  0.355912
13.374197  0.306572
13.378317  0.236181
13.382195  0.155382
13.386187  0.082637
13.390189  0.021826
13.394187 -0.042322
13.398188 -0.124799
13.402195 -0.220920
13.406187 -0.312049
13.410187 -0.388985
13.414189 -0.460858
13.418187 -0.536783
13.422320 -0.606216
13.426191 -0.648418
13.430199 -0.661361
13.434190 -0.669843
13.438204 -0.699575
13.442192 -0.751878
13.446189 -0.810264
13.450188 -0.861775
13.454189 -0.899909
13.458191 -0.915095
13.462195 -0.900190
13.466181 -0.864868
13.470188 -0.831389
13.474371 -0.813178
13.478195 -0.802118
13.482182 -0.778126
13.486181 -0.730927
13.490196 -0.671970
13.494187 -0.623268
13.498195 -0.593865
13.502195 -0.569846
13.506187 -0.531226
13.510188 -0.476243
13.514189 -0.421347
13.518197 -0.378014
13.522172 -0.339918
13.526225 -0.296544
13.530195 -0.251643
13.534192 -0.220903
13.538368 -0.212222
13.542190 -0.213708
13.546174 -0.204566
13.550188 -0.177013
13.554188 -0.144115
13.558197 -0.124342
13.562171 -0.122247
13.566188 -0.128649
13.570177 -0.134992
13.574426 -0.139434
13.578195 -0.140340
13.582329 -0.131662
13.586197 -0.109395
13.590189 -0.081055
13.594189 -0.061541
13.598198 -0.055520
13.602189 -0.050169
13.606189 -0.031546
13.610189 -0.002965
13.614200  0.022657
13.618199  0.050035
13.622198  0.111426
13.626189  0.237990
13.630190  0.419470
13.634202  0.599990
13.638192  0.719266
13.642191  0.755948
13.646190  0.729606
13.650360  0.668774
13.654243  0.586998
13.658198  0.487142
13.662195  0.374632
13.666190  0.255469
13.670189  0.124914
13.674188 -0.026983
13.678199 -0.190512
13.682404 -0.327082
13.686311 -0.398874
13.690180 -0.407258
13.694381 -0.393562
13.698192 -0.400649
13.702189 -0.437403
13.706203 -0.481459
13.710194 -0.510731
13.714189 -0.524221
13.718202 -0.535624
13.722206 -0.561431
13.726189 -0.620173
13.730282 -0.731760
13.734193 -0.905867
13.738192 -1.124772
13.742191 -1.327863
13.746391 -1.404299
13.750192 -1.210145
13.754197 -0.623675
13.758202  0.373805
13.762192  1.632763
13.766190  2.839574
13.770202  3.626092
13.774199  3.750132
13.778199  3.225521
13.782195  2.292670
13.786326  1.258312
13.790191  0.345118
13.794199 -0.350156
13.798396 -0.815177
13.802195 -1.075300
13.806187 -1.175305
13.810188 -1.171280
13.814187 -1.113067
13.818197 -1.027646
13.822197 -0.923970
13.826187 -0.812837
13.830170 -0.714353
13.834195 -0.642372
13.838196 -0.585199
13.842194 -0.511505
13.846176 -0.404577
13.850178 -0.286794
13.854188 -0.199917
13.858188 -0.161527
13.862187 -0.148315
13.866195 -0.123752
13.870187 -0.076898
13.874188 -0.029972
13.878188 -0.010087
13.882192 -0.019200
13.886199 -0.033822
13.890308 -0.028950
13.894191  0.004526
13.898200  0.063635
13.902329  0.142367
13.906188  0.228598
13.910202  0.298590
13.914192  0.329338
13.918189  0.322817
13.922197  0.311503
13.926194  0.330540
13.930187  0.382526
13.934623  0.435707
13.938186  0.461995
13.942188  0.472997
13.946199  0.508763
13.950196  0.590405
13.954202  0.698492
13.958192  0.803710
13.962191  0.898356
13.966190  0.981385
13.970367  1.029784
13.974202  1.009399
13.978192  0.911841
13.982189  0.773696
13.986199  0.667497
13.990286  0.661754
13.994197  0.761265
13.998197  0.894413
14.002189  0.979423
14.006197  0.988729
14.010190  0.941524
14.014197  0.863719
14.018197  0.773837
14.022189  0.689037
14.026189  0.620394
14.030191  0.560518
14.034193  0.489100
14.038196  0.395617
14.042192  0.289893
14.046187  0.187533
14.050191  0.091353
14.054202 -0.006415
14.058192 -0.105556
14.062199 -0.190371
14.066196 -0.246540
14.070188 -0.281342
14.074188 -0.318899
14.078187 -0.373882
14.082188 -0.435850
14.086195 -0.482926
14.090188 -0.506480
14.094276 -0.516831
14.098189 -0.525884
14.102199 -0.531123
14.106190 -0.521761
14.110189 -0.497269
14.114188 -0.471341
14.118306 -0.454994
14.122206 -0.441239
14.126172 -0.412229
14.130197 -0.362337
14.134419 -0.309481
14.138167 -0.277113
14.142165 -0.265770
14.146464 -0.252450
14.150188 -0.222262
14.154186 -0.189657
14.158196 -0.179423
14.162187 -0.194980
14.166188 -0.216848
14.170187 -0.228934
14.174188 -0.234645
14.178195 -0.243834
14.182188 -0.252091
14.186195 -0.242935
14.190201 -0.212204
14.194397 -0.181968
14.198197 -0.180863
14.202259 -0.210591
14.206195  0.218328
14.210187  0.343517
14.214188  0.410796
14.218188  0.401114
14.222195  0.343642
14.226188  0.286065
14.230189  0.252472
14.234202  0.231914
14.238191  0.206682
14.242189  0.182083
14.246191  0.181324
14.250190  0.216042
14.254197  0.272146
14.258189  0.327426
14.262189  0.376891
14.266190  0.434700
14.270190  0.512479
14.274197  0.603494
14.278189  0.693012
14.282197  0.778273
14.286199  0.867901
14.290189  0.960985
14.294324  1.036781
14.298382  1.070909
14.302190  1.056847
14.306187  1.005369
14.310323  0.924349
14.314192  0.807099
14.318189  0.646901
14.322208  0.460371
14.326192  0.287012
14.330240  0.159137
14.334186  0.074996
14.338202  0.008604
14.342368 -0.056832
14.346202 -0.117847
14.350191 -0.172458
14.354189 -0.234269
14.358189 -0.313311
14.362197 -0.391927
14.366190 -0.434851
14.370197 -0.427390
14.374284 -0.397870
14.378193 -0.398494
14.382188 -0.466205
14.386188 -0.603537
14.390187 -0.788426
14.394197 -0.981539
14.398197 -1.106538
14.402190 -1.030889
14.406192 -0.601667
14.410215  0.255837
14.414200  1.441162
14.418196  2.665553
14.422198  3.556422
14.426198  3.836048
14.430189  3.463128
14.434193  2.630884
14.438191  1.630499
14.442235  0.703348
14.446414 -0.020923
14.450451 -0.512796
14.454327 -0.807842
14.458190 -0.965457
14.462189 -1.030419
14.466189 -1.021536
14.470322 -0.953637
14.474201 -0.860074
14.478189 -0.781672
14.482188 -0.736512
14.486187 -0.715907
14.490203 -0.710951
14.494390 -0.723618
14.498244 -0.743564
14.502197 -0.735278
14.506197 -0.671179
14.510199 -0.570284
14.514198 -0.485130
14.518189 -0.451602
14.522190 -0.460684
14.526189 -0.476354
14.530194 -0.473423
14.534202 -0.454674
14.538192 -0.434143
14.542189 -0.413254
14.546190 -0.382015
14.550197 -0.340787
14.554190 -0.307802
14.558189 -0.297494
14.562190 -0.298449
14.566190 -0.283583
14.570202 -0.241231
14.574192 -0.186464
14.578189 -0.138905
14.582197 -0.098347
14.586189 -0.051023
14.590197  0.003946
14.594379  0.048124
14.598321  0.070958
14.602191  0.093203
14.606197  0.147206
14.610191  0.235055
14.614188  0.322583
14.618188  0.378101
14.622206  0.403025
14.626191  0.419542
14.630189  0.439982
14.634190  0.457804
14.638202  0.465204
14.642192  0.469662
14.646199  0.486433
14.650184  0.516257
14.654547  0.538735
14.658195  0.533714
14.662188  0.504428
14.666188  0.470429
14.670187  0.438764
14.674187  0.392322
14.678195  0.311233
14.682187  0.199414
14.686187  0.082226
14.690189 -0.020044
14.694187 -0.107711
14.698195 -0.189824
14.702196 -0.266028
14.706715 -0.327804
14.710189 -0.373729
14.714189 -0.411472
14.718197 -0.440872
14.722189 -0.445175
14.726189 -0.407024
14.730193 -0.330376
14.734194 -0.242628
14.738194 -0.175397
14.742167 -0.143471
14.746195 -0.139988
14.750196 -0.148515
14.754278 -0.156682
14.758191 -0.157347
14.762243 -0.142580
14.766197 -0.106680
14.770198 -0.058091
14.774315 -0.020880
14.778190 -0.016865
14.782255 -0.046441
14.786201 -0.089499
14.790172 -0.120713
14.794191 -0.117166
14.798316 -0.058264
14.802187  0.062396
14.806207  0.218581
14.810190  0.357831
14.814277  0.437967
14.818187  0.458304
14.822195  0.454162
14.826195  0.460906
14.830191  0.481651
14.834188  0.488800
14.838188  0.456811
14.842188  0.390726
14.846188  0.320318
14.850196  0.269669
14.854385  0.237985
14.858186  0.210151
14.862187  0.180911
14.866199  0.163212
14.870192  0.172022
14.874264  0.206892
14.878310  0.256053
14.882188  0.312136
14.886195  0.375021
14.890188  0.440407
14.894187  0.496742
14.898186  0.541045
14.902187  0.591939
14.906179  0.675563
14.910184  0.796131
14.914199  0.927779
14.918200  1.039699
14.922198  1.123110
14.926189  1.186353
14.930190  1.227338
14.934189  1.222821
14.938202  1.150524
14.942191  1.015665
14.946190  0.848582
14.950191  0.678954
14.954197  0.519808
14.958200  0.375305
14.962197  0.252546
14.966186  0.156602
14.970189  0.076734
14.974198 -0.011930
14.978189 -0.125880
14.982190 -0.253913
14.986189 -0.365781
14.990190 -0.441139
14.994412 -0.485798
14.998363 -0.520045
15.002192 -0.560530
15.006189 -0.620197
15.010197 -0.717372
15.014175 -0.867639
15.018269 -1.058768
15.022193 -1.235881
15.026181 -1.309612
15.030196 -1.175145
15.034196 -0.735075
15.038196  0.062646
15.042192  1.164728
15.046168  2.359761
15.050287  3.304372
15.054197  3.676230
15.058191  3.371973
15.062197  2.568656
15.066195  1.579057
15.070195  0.649489
15.074170 -0.118069
15.078185 -0.710237
15.082195 -1.127389
15.086182 -1.366378
15.090187 -1.445879
15.094196 -1.419352
15.098187 -1.350686
15.102188 -1.280050
15.106187 -1.217027
15.110194 -1.160289
15.114199 -1.113254
15.118264 -1.078327
15.122195 -1.045216
15.126187 -0.997209
15.130188 -0.931938
15.134196 -0.868158
15.138546 -0.826100
15.142193 -0.805143
15.146189 -0.786960
15.150185 -0.759289
15.154187 -0.729834
15.158188 -0.713068
15.162197 -0.707711
15.166187 -0.695882
15.170187 -0.665911
15.174187 -0.626342
15.178188 -0.590299
15.182195 -0.553010
15.186312 -0.495760
15.190188 -0.411905
15.194200 -0.319194
15.198192 -0.240773
15.202190 -0.179888
15.206197 -0.121458
15.210348 -0.055507
15.214195  0.011306
15.218190  0.069669
15.222205  0.125051
15.226182  0.192996
15.230199  0.276407
15.234193  0.355754
15.238190  0.410005
15.242190  0.443626
15.246273  0.481445
15.250189  0.534914
15.254195  0.584760
15.258188  0.604156
15.262187  0.591420
15.266196  0.570402
15.270187  0.561533
15.274188  0.561877
15.278188  0.556104
15.282190  0.539443
15.286194  0.519548
15.290188  0.496182
15.294200  0.454849
15.298198  0.391808
15.302341  0.332558
15.306294  0.306398
15.310193  0.307612
15.314188  0.300266
15.318193  0.261307
15.322231  0.204480
15.326195  0.158281
15.330193  0.130571
15.334169  0.103436
15.338228  0.060870
15.342193  0.012047
15.346169 -0.020964
15.350197 -0.037253
15.354187 -0.067501
15.358189 -0.140421
15.362187 -0.242012
15.366367 -0.322226
15.370174 -0.348191
15.374199 -0.338350
15.378191 -0.335182
15.382189 -0.357658
15.386190 -0.392919
15.390192 -0.424431
15.394197 -0.451303
15.398197 -0.476778
15.402191 -0.488898
15.406197 -0.466065
15.410198 -0.404420
15.414450 -0.329880
15.418200 -0.274509
15.422199 -0.244778
15.426190 -0.221899
15.430189 -0.191333
15.434200 -0.160069
15.438201 -0.141473
15.442189 -0.133794
15.446189 -0.122894
15.450189 -0.103443
15.454190 -0.087988
15.458202 -0.089942
15.462206 -0.102991
15.466189 -0.106534
15.470190 -0.091712
15.474189 -0.073437
15.478199 -0.072452
15.482192 -0.091593
15.486199 -0.116659
15.490188 -0.137209
15.494294 -0.156154
15.498193 -0.175706
15.502251 -0.184162
15.506197 -0.169157
15.510189 -0.141168
15.514361 -0.129574
15.518320 -0.149306
15.522199 -0.175125
15.526312 -0.154587
15.530185 -0.052977
15.534186  0.114087
15.538273  0.298370
15.542177  0.466804
15.546448  0.622164
15.550193  0.778168
15.554189  0.928716
15.558191  1.050375
15.562187  1.128069
15.566188  1.165714
15.570194  1.170209
15.574188  1.136901
15.578195  1.059628
15.582210  0.948353
15.586202  0.823695
15.590192  0.693265
15.594391  0.545096
15.598190  0.369410
15.602315  0.178750
15.606197 -0.000593
15.610189 -0.153231
15.614189 -0.282207
15.618286 -0.391583
15.622192 -0.472264
15.626186 -0.514423
15.630196 -0.529493
15.634195 -0.545728
15.638198 -0.576272
15.642192 -0.603868
15.646191 -0.610862
15.650191 -0.618553
15.654199 -0.680399
15.658191 -0.832139
15.662189 -1.054308
15.666190 -1.279790
15.670190 -1.419556
15.674295 -1.368960
15.678184 -1.009224
15.682182 -0.252579
15.686195  0.863568
15.690195  2.104790
15.694188  3.087344
15.698195  3.464356
15.702188  3.127993
15.706187  2.255207
15.710186  1.163600
15.714187  0.125089
15.718196 -0.712079
15.722187 -1.293891
15.726196 -1.618385
15.730188 -1.727162
15.734200 -1.699462
15.738192 -1.618056
15.742190 -1.528767
15.746201 -1.435448
15.750180 -1.332488
15.754202 -1.231429
15.758199 -1.150604
15.762290 -1.090167
15.766182 -1.032547
15.770187 -0.967450
15.774196 -0.904300
15.778187 -0.854543
15.782195 -0.810013
15.786195 -0.749522
15.790187 -0.666959
15.794195 -0.583063
15.798196 -0.522122
15.802187 -0.481274
15.806310 -0.433087
15.810195 -0.360395
15.814404 -0.278628
15.818189 -0.216321
15.822195 -0.179950
15.826189 -0.148779
15.830194 -0.102780
15.834312 -0.042490
15.838231  0.023781
15.842247  0.100145
15.846284  0.197135
15.850596  0.308260
15.854187  0.405640
15.858188  0.465985
15.862187  0.496218
15.866195  0.524962
15.870195  0.567842
15.874188  0.609336
15.878443  0.623873
15.882188  0.609423
15.886187  0.592166
15.890188  0.598238
15.894185  0.628570
15.898195  0.664351
15.902191  0.689570
15.906197  0.700843
15.910190  0.700576
15.914187  0.693710
15.918352  0.692981
15.922197  0.715273
15.926199  0.765533
15.930247  0.826744
15.934246  0.869388
15.938458  0.874991
15.942193  0.852209
15.946195  0.824678
15.950187  0.800495
15.954296  0.759990
15.958191  0.678780
15.962189  0.558580
15.966189  0.427367
15.970190  0.309691
15.974199  0.206319
15.978189  0.106724
15.982189  0.011506
15.986190 -0.068209
15.990189 -0.130061
15.994197 -0.186198
15.998189 -0.245001
16.002189 -0.295520
16.006202 -0.318932
16.010192 -0.313894
16.014191 -0.302761
16.018190 -0.309695
16.022320 -0.338073
16.026191 -0.373716
16.030190 -0.404029
16.034197 -0.424621
16.038202 -0.430211
16.042190 -0.411543
16.046190 -0.366165
16.050197 -0.306992
16.054180 -0.254729
16.058451 -0.220190
16.062192 -0.195997
16.066195 -0.169177
16.070187 -0.140741
16.074187 -0.126412
16.078195 -0.135978
16.082190 -0.159133
16.086187 -0.179046
16.090190 -0.195753
16.094168 -0.222807
16.098169 -0.255855
16.102205 -0.259412
16.106193 -0.201862
16.110193 -0.098501
16.114188 -0.004283
16.118187  0.036446
16.122195  0.024363
16.126187 -0.009157
16.130187 -0.040612
16.134195 -0.071959
16.138197 -0.113105
16.142195 -0.158561
16.146188 -0.192010
16.150195 -0.211346
16.154189 -0.233651
16.158313 -0.267298
16.162205 -0.292221
16.166339 -0.282975
16.170208 -0.244764
16.174215 -0.210872
16.178198 -0.204458
16.182187 -0.213395
16.186188 -0.205951
16.190187 -0.165738
16.194188 -0.106101
16.198195 -0.051405
16.202188 -0.009778
16.206187 -0.217568
16.210190 -0.066282
16.214187  0.054896
16.218197  0.137502
16.222171  0.199837
16.226241  0.266112
16.230253  0.336518
16.234274  0.384897
16.238181  0.391887
16.242196  0.370456
16.246398  0.345913
16.250193  0.316486
16.254186  0.249609
16.258193  0.120600
16.262186 -0.053641
16.266359 -0.225459
16.270186 -0.358787
16.274202 -0.455026
16.278192 -0.536396
16.282189 -0.611672
16.286199 -0.666904
16.290256 -0.688342
16.294202 -0.682400
16.298198 -0.665721
16.302199 -0.646040
16.306202 -0.628290
16.310192 -0.636091
16.314189 -0.707086
16.318203 -0.856137
16.322279 -1.049296
16.326185 -1.215779
16.330184 -1.271270
16.334341 -1.121349
16.338192 -0.663836
16.342272  0.166699
16.346564  1.310770
16.350195  2.521499
16.354194  3.422976
16.358190  3.700844
16.362187  3.290924
16.366188  2.399620
16.370194  1.344489
16.374187  0.371163
16.378195 -0.410965
16.382187 -0.981227
16.386187 -1.347249
16.390274 -1.527651
16.394188 -1.554337
16.398195 -1.462748
16.402189 -1.285122
16.406195 -1.068462
16.410264 -0.884260
16.414197 -0.788369
16.418192 -0.771949
16.422205 -0.774119
16.426198 -0.742540
16.430190 -0.674586
16.434197 -0.608323
16.438190 -0.579820
16.442197 -0.585658
16.446405 -0.585903
16.450190 -0.545852
16.454169 -0.471390
16.458188 -0.396088
16.462187 -0.337571
16.466185 -0.281572
16.470292 -0.211759
16.474183 -0.139072
16.478182 -0.088917
16.482195 -0.066418
16.486187 -0.049276
16.490188 -0.016712
16.494187  0.026850
16.498189  0.063028
16.502195  0.085022
16.506188  0.101906
16.510187  0.122599
16.514186  0.149716
16.518354  0.189936
16.522189  0.255995
16.526181  0.352555
16.530182  0.466708
16.534233  0.575738
16.538416  0.664222
16.542193  0.734144
16.546398  0.795366
16.550195  0.845856
16.554185  0.871009
16.558185  0.871450
16.562186  0.883574
16.566185  0.949067
16.570190  1.052532
16.574198  1.114070
16.578189  1.072098
16.582187  0.956881
16.586199  0.853617
16.590192  0.806972
16.594191  0.787183
16.598197  0.741412
16.602189  0.655865
16.606189  0.561424
16.610189  0.489574
16.614197  0.438090
16.618187  0.383907
16.622195  0.317991
16.626195  0.253663
16.630187  0.200852
16.634195  0.145870
16.638192  0.066905
16.642181 -0.035187
16.646188 -0.133132
16.650197 -0.202458
16.654195 -0.245482
16.658187 -0.281188
16.662195 -0.318998
16.666188 -0.352222
16.670197 -0.375260
16.674195 -0.395624
16.678187 -0.422446
16.682195 -0.448967
16.686250 -0.456932
16.690190 -0.440909
16.694198 -0.420196
16.698191 -0.419040
16.702190 -0.438065
16.706190 -0.453554
16.710189 -0.445137
16.714197 -0.416069
16.718197 -0.383502
16.722320 -0.356649
16.726254 -0.331459
16.730195 -0.303774
16.734187 -0.279613
16.738187 -0.267391
16.742187 -0.262150
16.746203 -0.246402
16.750201 -0.211720
16.754188 -0.171869
16.758233 -0.145970
16.762192 -0.135074
16.766195 -0.127378
16.770188 -0.123111
16.774195 -0.137250
16.778187 -0.170641
16.782256 -0.192670
16.786195 -0.169807
16.790190 -0.108633
16.794188 -0.054371
16.798195 -0.042443
16.802265 -0.062586
16.806187 -0.077631
16.810186 -0.068574
16.814169 -0.048440
16.818304 -0.033144
16.822198 -0.012950
16.826192  0.036070
16.830187  0.115834
16.834193  0.194731
16.838187  0.239123
16.842193  0.250838
16.846524  0.263467
16.850326  0.300171
16.854193  0.347037
16.858311  0.374825
16.862184  0.375210
16.866183  0.365196
16.870200  0.361543
16.874192  0.361259
16.878189  0.351692
16.882198  0.334224
16.886190  0.326788
16.890190  0.341246
16.894189  0.369120
16.898190  0.396815
16.902257  0.428262
16.906190  0.481190
16.910189  0.559406
16.914190  0.637930
16.918189  0.682363
16.922197  0.679372
16.926189  0.641656
16.930188  0.584759
16.934190  0.508389
16.938190  0.405321
16.942205  0.281868
16.946193  0.159460
16.950189  0.054452
16.954201 -0.036405
16.958190 -0.124571
16.962197 -0.208690
16.966193 -0.275350
16.970202 -0.320968
16.974192 -0.361586
16.978190 -0.414830
16.982189 -0.477405
16.986202 -0.526845
16.990199 -0.546440
16.994198 -0.545081
16.998188 -0.549752
17.002190 -0.581887
17.006189 -0.647951
17.010202 -0.751316
17.014192 -0.898560
17.018260 -1.079681
17.022190 -1.239061
17.026189 -1.269816
17.030190 -1.043548
17.034189 -0.462913
17.038199  0.481350
17.042206  1.664434
17.046181  2.817831
17.050190  3.598549
17.054199  3.747144
17.058198  3.240495
17.062198  2.300272
17.066193  1.241906
17.070185  0.302740
17.074195 -0.420107
17.078195 -0.923101
17.082188 -1.228060
17.086195 -1.357468
17.090187 -1.349375
17.094187 -1.266488
17.098188 -1.171972
17.102189 -1.096002
17.106187 -1.033591
17.110193 -0.972153
17.114181 -0.909969
17.118197 -0.846529
17.122189 -0.767604
17.126188 -0.652928
17.130194 -0.501424
17.134186 -0.342174
17.138303 -0.212295
17.142192 -0.123750
17.146169 -0.058911
17.150197  0.000839
17.154188  0.052847
17.158187  0.085084
17.162196  0.100892
17.166385  0.119156
17.170186  0.149055
17.174262  0.176556
17.178192  0.185147
17.182189  0.183324
17.186189  0.198267
17.190197  0.241734
17.194197  0.293916
17.198190  0.327025
17.202199  0.337666
17.206190  0.346448
17.210189  0.367313
17.214190  0.389962
17.218189  0.399916
17.222265  0.405664
17.226232  0.430795
17.230190  0.480012
17.234189  0.526937
17.238190  0.542541
17.242189  0.528208
17.246197  0.511845
17.250189  0.513721
17.254197  0.525905
17.258198  0.529200
17.262197  0.522061
17.266190  0.521750
17.270195  0.538332
17.274387  0.559797
17.278187  0.568190
17.282195  0.562632
17.286189  0.557399
17.290188  0.557627
17.294187  0.546092
17.298187  0.501372
17.302195  0.425392
17.306187  0.344034
17.310188  0.278915
17.314188  0.225902
17.318202  0.166629
17.322199  0.095870
17.326198  0.028043
17.330189 -0.024192
17.334197 -0.068084
17.338197 -0.120246
17.342198 -0.183061
17.346191 -0.242331
17.350197 -0.289923
17.354190 -0.337679
17.358189 -0.398928
17.362308 -0.460604
17.366197 -0.487138
17.370189 -0.457844
17.374194 -0.392207
17.378223 -0.329773
17.382185 -0.290695
17.386189 -0.266742
17.390384 -0.247721
17.394192 -0.241256
17.398199 -0.260029
17.402190 -0.299628
17.406190 -0.339903
17.410188 -0.366229
17.414171 -0.379804
17.418199 -0.384105
17.422269 -0.369382
17.426199 -0.320117
17.430270 -0.238301
17.434199 -0.150498
17.438198 -0.084474
17.442308 -0.042515
17.446196 -0.005839
17.450197  0.036872
17.454198  0.075312
17.458197  0.094114
17.462197  0.095436
17.466406  0.096844
17.470186  0.107410
17.474200  0.114415
17.478189  0.098754
17.482190  0.058855
17.486202  0.012273
17.490193 -0.027123
17.494189 -0.066852
17.498190 -0.124095
17.502197 -0.199350
17.506190 -0.272049
17.510197 -0.325337
17.514197 -0.366167
17.518264 -0.413125
17.522188 -0.469514
17.526195 -0.519939
17.530186 -0.555222
17.534187 -0.588178
17.538188 -0.634645
17.542189 -0.686606
17.546202 -0.718599
17.550190 -0.721477
17.554477 -0.717861
17.558191 -0.736703
17.562186 -0.777991
17.566185 -0.812546
17.570201 -0.816724
17.574283 -0.797196
17.578218 -0.777911
17.582190 -0.771980
17.586231 -0.773934
17.590194 -0.774778
17.594190 -0.775024
17.598202 -0.780327
17.602190 -0.789907
17.606197 -0.795462
17.610190 -0.791751
17.614200 -0.782783
17.618190 -0.772468
17.622183 -0.752027
17.626202 -0.706563
17.630197 -0.635979
17.634189 -0.558396
17.638197 -0.488253
17.642392 -0.419976
17.646193 -0.337729
17.650189 -0.236477
17.654291 -0.129894
17.658626 -0.036736
17.662191  0.038815
17.666193  0.107273
17.670201  0.171793
17.674200  0.213444
17.678221  0.207117
17.682190  0.149778
17.686197  0.063901
17.690197 -0.028403
17.694186 -0.125896
17.698200 -0.238020
17.702191 -0.361937
17.706189 -0.480988
17.710189 -0.586441
17.714190 -0.689556
17.718252 -0.802673
17.722206 -0.911794
17.726340 -0.980282
17.730198 -0.986750
17.734189 -0.951273
17.738182 -0.912683
17.742193 -0.885945
17.746191 -0.858917
17.750195 -0.830961
17.754194 -0.836359
17.758193 -0.918934
17.762188 -1.088343
17.766193 -1.305157
17.770184 -1.497654
17.774192 -1.574583
17.778263 -1.422381
17.782316 -0.924106
17.786191 -0.030445
17.790189  1.149788
17.794189  2.322795
17.798197  3.111957
17.802190  3.254062
17.806190  2.743081
17.810191  1.798905
17.814189  0.709972
17.818197 -0.293217
17.822190 -1.063890
17.826197 -1.527800
17.830312 -1.694368
17.834315 -1.657272
17.838177 -1.541081
17.842183 -1.429125
17.846382 -1.338221
17.850350 -1.250027
17.854193 -1.155050
17.858191 -1.067101
17.862166 -1.002167
17.866193 -0.954245
17.870189 -0.903505
17.874321 -0.844685
17.878189 -0.793488
17.882462 -0.763684
17.886247 -0.746807
17.890200 -0.717210
17.894398 -0.651743
17.898398 -0.537936
17.902193 -0.368730
17.906300 -0.147641
17.910194  0.094912
17.914368  0.304891
17.918192  0.437030
17.922191  0.485628
17.926398  0.483814
17.930195  0.476780
17.934239  0.498637
17.938341  0.568282
17.942319  0.689711
17.946240  0.842731
17.959060  0.981106
17.962265  1.059593
17.966199  1.067036
17.970189  1.023142
17.974190  0.948067
17.978199  0.851508
17.982184  0.748036
17.986200  0.661918
17.990193  0.607593
17.994199  0.576046
17.998190  0.550636
18.002235  0.531279
18.006191  0.532519
18.010173  0.558363
18.014194  0.590423
18.018193  0.607771
18.022194  0.611946
18.026190  0.621346
18.030193  0.639938
18.034196  0.642553
18.038173  0.602541
18.042194  0.531935
18.046238  0.477543
18.050190  0.466785
18.054193  0.470526
18.058196  0.434399
18.062192  0.338997
18.066183  0.218746
18.070175  0.130092
18.074295  0.110565
18.078283  0.161325
18.082354  0.254992
18.086284  0.353869
18.090230  0.425878
18.094191  0.455698
18.098196  0.451545
18.102248  0.443327
18.106372  0.465273
18.110303  0.526835
18.114269  0.599211
18.118186  0.639570
18.122364  0.628563
18.126381  0.578416
18.130190  0.507897
18.134194  0.419139
18.138197  0.304504
18.142197  0.171661
18.146189  0.049876
18.150198 -0.035282
18.154202 -0.087795
18.158199 -0.133403
18.162189 -0.188095
18.166199 -0.243706
18.170191 -0.284124
18.174189 -0.302352
18.178245 -0.297907
18.182472 -0.271497
18.186188 -0.229978
18.190197 -0.187197
18.194192 -0.150925
18.198188 -0.111425
18.202196 -0.049138
18.206180  0.046007
18.210181  0.164597
18.214190  0.280309
18.218184  0.352988
18.222194  0.403599
18.226168  0.428300
18.230191  0.429404
18.234460  0.400262
18.238194  0.343055
18.242355  0.296248
18.246189  0.319431
18.250244  0.438051
18.254227  0.613102
18.258253  0.776412
18.262226  0.889024
18.266345  0.953937
18.270195  0.980579
18.274314  0.961572
18.278289  0.896388
18.282257  0.824165
18.286195  0.809180
18.290330  0.881438
18.294279  0.998268
18.298258  1.076485
18.302328  1.062194
18.306193  0.963354
18.310189  0.821543
18.314188  0.669061
18.318201  0.518957
18.322206  0.382621
18.326413  0.276680
18.330191  0.206860
18.334189  0.157259
18.338193  0.104999
18.342186  0.040738
18.346437 -0.029078
18.350195 -0.093215
18.354195 -0.141738
18.358163 -0.164998
18.362191 -0.158190
18.366197 -0.133058
18.370199 -0.118081
18.374513 -0.136025
18.378364 -0.180142
18.382194 -0.218043
18.386327 -0.218820
18.390354 -0.175146
18.394197 -0.103639
18.398344 -0.026582
18.402169  0.047115
18.406189  0.121000
18.410194  0.194522
18.414187  0.259508
18.418187  0.318007
18.422244  0.393217
18.426193  0.509417
18.430190  0.657261
18.434194  0.786681
18.438186  0.844256
18.442184  0.819771
18.446295  0.753395
18.450193  0.696102
18.454237  0.663813
18.458193  0.630633
18.462190  0.561088
18.466193  0.440749
18.470449  0.279754
18.478390  0.101651
18.482197 -0.065806
18.486188 -0.200797
18.490197 -0.301514
18.494170 -0.388579
18.498326 -0.484313
18.502191 -0.588825
18.506190 -0.682853
18.510189 -0.754624
18.514202 -0.817030
18.518191 -0.895023
18.522189 -1.001527
18.526190 -1.132175
18.530262 -1.281452
18.534199 -1.450294
18.538187 -1.616975
18.542197 -1.688836
18.546197 -1.501409
18.550186 -0.906781
18.554196  0.104081
18.558191  1.346574
18.562190  2.495784
18.566319  3.217050
18.570188  3.315783
18.574172  2.824930
18.578188  1.963310
18.582196  0.999371
18.586400  0.132643
18.590192 -0.541559
18.594195 -1.005461
18.598189 -1.277600
18.602196 -1.384939
18.606289 -1.358797
18.610365 -1.248947
18.614189 -1.124402
18.618443 -1.036571
18.622193 -0.979042
18.626187 -0.901145
18.630189 -0.767979
18.634189 -0.600038
18.638191 -0.451960
18.642183 -0.357042
18.646186 -0.298572
18.650192 -0.237556
18.672694 -0.159127
18.674694 -0.084470
18.677036 -0.045306
18.679148 -0.053002
18.682193 -0.086286
18.686478 -0.105068
18.690194 -0.081358
18.694189 -0.020785
18.698197  0.047560
18.702191  0.102410
18.706197  0.147630
18.710187  0.198377
18.714184  0.257908
18.718189  0.316612
18.722193  0.372699
18.726198  0.441148
18.730193  0.532521
18.734331  0.629289
18.738191  0.695967
18.742192  0.715554
18.746171  0.709985
18.750207  0.720648
18.754235  0.769403
18.758191  0.841030
18.762168  0.907230
18.766185  0.964479
18.770238  1.034512
18.774190  1.126586
18.778318  1.221667
18.782260  1.304137
18.786268  1.387043
18.790310  1.486864
18.794304  1.585950
18.798291  1.641840
18.802390  1.635929
18.806335  1.601481
18.810193  1.597201
18.814279  1.654551
18.818238  1.751285
18.822192  1.831295
18.826189  1.843737
18.830190  1.764873
18.834189  1.598082
18.838452  1.370537
18.842194  1.128675
18.846191  0.918443
18.850335  0.756823
18.854277  0.624835
18.858317  0.493929
18.862262  0.357478
18.866195  0.231543
18.870368  0.126252
18.874196  0.026938
18.878188 -0.087171
18.882251 -0.210173
18.886185 -0.308613
18.890187 -0.357457
18.894173 -0.368216
18.898323 -0.374927
18.902195 -0.396915
18.906195 -0.421919
18.910197 -0.425557
18.914195 -0.401439
18.918178 -0.366231
18.922195 -0.336419
18.926195 -0.310760
18.930337 -0.282895
18.934167 -0.261499
18.938279 -0.261597
18.942303 -0.274340
18.946213 -0.259674
18.950455 -0.182190
18.954230 -0.051995
18.958189  0.083934
18.962189  0.194974
18.966288  0.297157
18.970244  0.421915
18.974226  0.567065
18.978338  0.692524
18.982416  0.764289
18.986186  0.794043
18.990216  0.827444
18.994288  0.896114
18.998327  0.990271
19.002460  1.074632
19.006195  1.116946
19.010191  1.098845
19.014185  1.012917
19.018185  0.864601
19.022185  0.679474
19.026193  0.495753
19.030185  0.336405
19.034187  0.191391
19.038185  0.037848
19.042185 -0.123877
19.046193 -0.265257
19.050196 -0.361113
19.054188 -0.414692
19.058227 -0.446789
19.062428 -0.468874
19.066197 -0.476085
19.070195 -0.465151
19.074466 -0.448719
19.078193 -0.443896
19.082229 -0.450776
19.086193 -0.453153
19.090195 -0.443638
19.094193 -0.438976
19.098187 -0.460634
19.102193 -0.502635
19.106442 -0.529678
19.110193 -0.513172
19.114221 -0.464476
19.118193 -0.423353
19.122193 -0.413484
19.126195 -0.419876
19.130236 -0.411657
19.134199 -0.372874
19.138289 -0.302767
19.142274 -0.199230
19.146245 -0.061699
19.150242  0.088935
19.154185  0.210576
19.158347  0.273200
19.162377  0.292639
19.166432  0.322797
19.170193  0.402729
19.174330  0.512113
19.178199  0.591221
19.182190  0.602559
19.186190  0.557471
19.190190  0.485701
19.194189  0.401019
19.198197  0.305799
19.202189  0.215787
19.206197  0.163085
19.210191  0.170510
19.214173  0.228479
19.218235  0.299940
19.222206  0.346515
19.226242  0.349156
19.230167  0.307219
19.234180  0.229938
19.238189  0.138479
19.242195  0.063711
19.246171  0.021524
19.250234 -0.010110
19.254240 -0.077511
19.258163 -0.208720
19.262168 -0.383043
19.266166 -0.544534
19.270167 -0.650498
19.274166 -0.707302
19.278193 -0.756449
19.282171 -0.829046
19.286193 -0.918567
19.290253 -0.994003
19.294160 -1.027134
19.298192 -1.001467
19.302193 -0.915109
19.306188 -0.813253
19.310196 -0.821100
19.314338 -1.067496
19.318451 -1.473385
19.322329 -1.617317
19.326249 -0.954808
19.330226  0.667775
19.352720  2.710351
19.354903  4.271951
19.356860  4.767781
19.358686  4.248548
19.362191  3.163443
19.366180  1.966199
19.370186  0.913700
19.374203  0.078332
19.378203 -0.552853
19.382190 -1.001275
19.386197 -1.281481
19.390197 -1.421240
19.394189 -1.469018
19.398197 -1.472111
19.402206 -1.452355
19.406190 -1.408755
19.410484 -1.342107
19.414274 -1.269705
19.418453 -1.209256
19.422438 -1.154071
19.426195 -1.079294
19.430181 -0.975723
19.434241 -0.866811
19.438450 -0.787192
19.442194 -0.748825
19.446397 -0.732419
19.450194 -0.710063
19.454192 -0.669172
19.458194 -0.613779
19.462160 -0.553101
19.466193 -0.495464
19.470215 -0.447932
19.474194 -0.411022
19.478277 -0.366765
19.482188 -0.280971
19.486193 -0.133599
19.490187  0.056970
19.494294  0.252160
19.498313  0.426061
19.502388  0.571469
19.506305  0.690090
19.510371  0.786607
19.514392  0.861381
19.518193  0.910130
19.522193  0.943173
19.526221  0.995691
19.530343  1.096959
19.546201  1.230770
19.548411  1.341786
19.550755  1.378461
19.554189  1.323018
19.558189  1.193013
19.562195  1.028079
19.566187  0.868287
19.570188  0.731886
19.574185  0.612375
19.578188  0.500404
19.582234  0.404069
19.586365  0.340498
19.590195  0.309963
19.594245  0.288376
19.598197  0.248387
19.602186  0.181716
19.606177  0.098161
19.610188  0.006598
19.614182 -0.098507
19.618200 -0.228151
19.622205 -0.377449
19.626180 -0.521271
19.630193 -0.636488
19.634186 -0.724478
19.638185 -0.806510
19.642186 -0.898582
19.646186 -0.994756
19.650194 -1.074979
19.654193 -1.125065
19.658193 -1.145023
19.662245 -1.138909
19.666187 -1.105217
19.670193 -1.044806
19.674193 -0.972190
19.678170 -0.907451
19.682189 -0.857989
19.686188 -0.818279
19.690179 -0.789853
19.694188 -0.792747
19.698370 -0.848621
19.702187 -0.952663
19.706195 -1.068550
19.710260 -1.155979
19.714196 -1.201451
19.718195 -1.218687
19.722187 -1.223534
19.726314 -1.219069
19.730192 -1.207072
19.734189 -1.201070
19.738189 -1.215508
19.742197 -1.245159
19.746189 -1.266027
19.750198 -1.258913
19.754197 -1.225269
19.758189 -1.176470
19.762197 -1.115521
19.766198 -1.040296
19.770370 -0.963345
19.774188 -0.914391
19.778195 -0.913990
19.782188 -0.949959
19.786197 -0.988810
19.790229 -1.010607
19.794201 -1.026369
19.798191 -1.058696
19.802190 -1.109116
19.806197 -1.149412
19.810199 -1.146725
19.814188 -1.094399
19.818197 -1.014521
19.822198 -0.933439
19.826197 -0.862393
19.830199 -0.801648
19.834171 -0.753004
19.838197 -0.719019
19.842199 -0.692513
19.846169 -0.658182
19.850188 -0.610526
19.854187 -0.564416
19.858184 -0.540272
19.862194 -0.539939
19.866194 -0.544595
19.870188 -0.539142
19.874195 -0.532091
19.878195 -0.543960
19.882187 -0.578145
19.886195 -0.613597
19.890188 -0.631305
19.894188 -0.638817
19.898190 -0.657090
19.902187 -0.687271
19.906195 -0.705298
19.910185 -0.693447
19.914187 -0.665551
19.918185 -0.651361
19.922310 -0.661046
19.926191 -0.676426
19.930182 -0.678116
19.934169 -0.669309
19.938168 -0.664718
19.942206 -0.663844
19.946195 -0.648152
19.950190 -0.607038
19.954189 -0.556807
19.958390 -0.525037
19.962192 -0.518672
19.966189 -0.514929
19.970202 -0.484247
19.974340 -0.416899
19.978197 -0.325219
19.982197 -0.225060
19.986189 -0.122829
19.990197 -0.022567
19.994199  0.062915
19.998190  0.119050
20.002197  0.147748
20.006197  0.169685
20.010189  0.203661
20.014190  0.247873
20.018202  0.286353
20.022192  0.311174
20.026197  0.331467
20.030264  0.358215
20.034279  0.384583
20.038199  0.388002
20.042191  0.353396
20.046197  0.287973
20.050177  0.208657
20.054178  0.122631
20.058188  0.029973
20.062181 -0.058597
20.066200 -0.121534
20.070201 -0.151391
20.074189 -0.169552
20.078273 -0.202692
20.082296 -0.247446
20.086193 -0.270759
20.090191 -0.248046
20.094187 -0.194093
20.098196 -0.154011
20.102195 -0.170214
20.106189 -0.261699
20.110200 -0.424891
20.114190 -0.634343
20.118401 -0.831255
20.122193 -0.918741
20.126191 -0.783713
20.130196 -0.337196
20.134334  0.448184
20.138197  1.512906
20.142205  2.697372
20.146171  3.751712
20.150197  4.397245
20.154190  4.444991
20.158383  3.901655
20.162194  2.967648
20.166188  1.923259
20.170192  0.999195
20.174201  0.317347
20.178190 -0.095495
20.182259 -0.271710
20.186198 -0.280801
20.190189 -0.214313
20.194197 -0.156949
20.198197 -0.149793
20.202189 -0.176957
20.206190 -0.193313
20.210189 -0.170950
20.214189 -0.121659
20.218202 -0.077236
20.222194 -0.052801
20.226190 -0.032736
20.230201  0.010476
20.234192  0.091361
20.238314  0.207286
20.242205  0.349041
20.246195  0.505512
20.250190  0.176140
20.254197  0.307783
20.258195  0.378792
20.262188  0.377513
20.266187  0.342044
20.270188  0.317488
20.274202  0.317190
20.278191  0.324960
20.282189  0.326927
20.286190  0.329943
20.290190  0.346191
20.294201  0.370848
20.298186  0.386638
20.302189  0.388660
20.306197  0.393657
20.310189  0.419531
20.314189  0.462493
20.318189  0.503271
20.322189  0.533129
20.326197  0.562194
20.330189  0.600305
20.334197  0.641947
20.338398  0.675860
20.342197  0.700045
20.346371  0.720394
20.350195  0.738186
20.354187  0.743972
20.358187  0.727642
20.362188  0.695449
20.366187  0.669870
20.370195  0.665964
20.374187  0.673164
20.378188  0.668399
20.382187  0.644698
20.386188  0.618467
20.390195  0.605958
20.394187  0.599744
20.398187  0.577151
20.402188  0.529401
20.406187  0.470338
20.410187  0.411833
20.414194  0.341431
20.418195  0.238018
20.422369  0.110375
20.426195  0.007972
20.430171 -0.018180
20.434318  0.034803
20.438245  0.119165
20.442195  0.183093
20.446215  0.208257
20.450199  0.200637
20.454191  0.164681
20.458189  0.102664
20.462312  0.029490
20.466192 -0.032311
20.470189 -0.076010
20.474197 -0.117327
20.478197 -0.170205
20.482198 -0.221107
20.486197 -0.239113
20.490195 -0.217200
20.494191 -0.193848
20.498197 -0.219982
20.502198 -0.304979
20.506189 -0.405147
20.510190 -0.466992
20.514189 -0.473524
20.518202 -0.445129
20.522205 -0.405917
20.526197 -0.361920
20.530197 -0.310771
20.534199 -0.259259
20.538199 -0.221308
20.542259 -0.201172
20.546194 -0.188937
20.550190 -0.177301
20.554197 -0.174451
20.558202 -0.190199
20.562205 -0.212275
20.566197 -0.208311
20.570197 -0.157576
20.574266 -0.076123
20.578195 -0.003419
20.582191  0.036295
20.586199  0.054713
20.590198  0.079681
20.594200  0.120171
20.598192  0.159773
20.602197  0.182521
20.606191  0.189669
20.610190  0.185518
20.614190  0.161557
20.618189  0.107952
20.622197  0.035153
20.626190 -0.030465
20.630190 -0.077889
20.634189 -0.129198
20.638189 -0.212481
20.642206 -0.315512
20.646281 -0.381766
20.650196 -0.365819
20.654198 -0.284300
20.658316 -0.197621
20.662190 -0.146827
20.666189 -0.122651
20.670225 -0.095328
20.674199 -0.059920
20.678198 -0.043334
20.682189 -0.072309
20.686190 -0.144123
20.690365 -0.230201
20.694190 -0.301708
20.698195 -0.345719
20.702186 -0.361945
20.706247 -0.357076
20.710189 -0.344249
20.714186 -0.335484
20.718255 -0.329010
20.722194 -0.310869
20.726240 -0.271083
20.730169 -0.213782
20.734167 -0.152655
20.738191 -0.099366
20.742299 -0.053840
20.746195 -0.005282
20.750400  0.053074
20.754192  0.111024
20.758189  0.149284
20.762189  0.162009
20.766189  0.166338
20.770188  0.185626
20.774197  0.226826
20.778190  0.279392
20.782189  0.332751
20.786190  0.385855
20.790303  0.437779
20.794192  0.477998
20.798189  0.494654
20.802406  0.488989
20.806187  0.471344
20.810187  0.440978
20.814195  0.379056
20.818187  0.269295
20.822187  0.123039
20.826187 -0.023966
20.830195 -0.143119
20.834197 -0.237016
20.838196 -0.327040
20.842187 -0.419297
20.846204 -0.491147
20.850472 -0.518035
20.854182 -0.509642
20.858183 -0.507086
20.862198 -0.541902
20.866189 -0.609625
20.870190 -0.688131
20.874189 -0.770905
20.878192 -0.873820
20.882197 -1.012648
20.886190 -1.181683
20.890187 -1.356438
20.894197 -1.504792
20.898198 -1.574017
20.902189 -1.462510
20.906190 -1.033336
20.910335 -0.201615
20.914195  0.955957
20.918202  2.167746
20.922403  3.066386
20.926193  3.375621
20.930195  3.053128
20.934201  2.278917
20.938193  1.317053
20.942197  0.385093
20.946331 -0.386719
20.950195 -0.941049
20.954241 -1.277071
20.958190 -1.432099
20.962195 -1.452648
20.966188 -1.375679
20.970271 -1.235709
20.974195 -1.077193
20.978197 -0.943722
20.982208 -0.852277
20.986192 -0.788167
20.990189 -0.730822
20.994197 -0.677848
20.998189 -0.638416
21.002190 -0.612362
21.006190 -0.592251
21.010188 -0.589447
21.014196 -0.639347
21.018198 -0.753638
21.022189 -0.863353
21.026193 -0.846855
21.030276 -0.649133
21.034186 -0.350288
21.038182 -0.085045
21.042194  0.081543
21.046198  0.177988
21.050191  0.257655
21.054186  0.336884
21.058208  0.395754
21.062192  0.418766
21.066195  0.419347
21.070187  0.422407
21.074188  0.433123
21.078188  0.433623
21.082188  0.409985
21.086197  0.373962
21.090188  0.353016
21.094187  0.362536
21.098259  0.394310
21.102195  0.431620
21.106195  0.466394
21.110196  0.496356
21.114186  0.514353
21.118188  0.513419
21.122187  0.502162
21.126188  0.503306
21.130187  0.529662
21.134194  0.565771
21.138353  0.579846
21.142188  0.554482
21.146187  0.504309
21.150196  0.464172
21.154255  0.460312
21.158197  0.492684
21.162234  0.544480
21.166195  0.601581
21.170195  0.654043
21.174195  0.686229
21.178195  0.683135
21.182195  0.648385
21.186424  0.602954
21.190195  0.560389
21.194189  0.510604
21.198188  0.434364
21.202172  0.331148
21.206192  0.226934
21.210235  0.151109
21.214195  0.106859
21.218197  0.070067
21.222384  0.019681
21.226187 -0.038678
21.230202 -0.087082
21.234192 -0.126674
21.238189 -0.180198
21.242197 -0.260816
21.246190 -0.351192
21.250190 -0.421661
21.254197 -0.460455
21.258190 -0.476411
21.262205 -0.477973
21.266192 -0.462293
21.270190 -0.426990
21.274198 -0.382682
21.278189 -0.344564
21.282261 -0.313569
21.286260 -0.275118
21.290392 -0.219951
21.294261 -0.160766
21.298189 -0.122776
21.302190 -0.117994
21.306460 -0.132797
21.310187 -0.143336
21.314187 -0.139574
21.318319 -0.127766
21.322250 -0.110464
21.326197 -0.074860
21.330191 -0.008992
21.334185  0.076325
21.338194  0.153649
21.342192  0.207739
21.346582  0.246529
21.350185  0.277310
21.354188  0.284960
21.358199  0.250253
21.362761  0.184646
21.366191  0.129097
21.370197  0.115852
21.374189  0.140749
21.378198  0.173540
21.382341  0.188677
21.386188  0.183093
21.390188  0.165603
21.394202  0.136189
21.398191  0.085046
21.402189  0.011712
21.406190 -0.065911
21.410197 -0.128185
21.414189 -0.173085
21.418197 -0.210929
21.422198 -0.242969
21.426198 -0.255275
21.430197 -0.237449
21.434260 -0.200887
21.438326 -0.170946
21.442188 -0.160904
21.446194 -0.159179
21.450196 -0.145121
21.454195 -0.113094
21.458330 -0.075160
21.462194 -0.042346
21.466193 -0.013417
21.470193  0.012589
21.474190  0.021875
21.478197 -0.002641
21.482179 -0.054654
21.486461 -0.101032
21.490188 -0.113819
21.494185 -0.101027
21.498188 -0.095916
21.502187 -0.116142
21.506195 -0.141709
21.510187 -0.135109
21.514195 -0.077435
21.518304  0.017722
21.522198  0.121014
21.526189  0.211614
21.530198  0.284376
21.534187  0.341812
21.538197  0.390296
21.542190  0.443886
21.546190  0.519373
21.550242  0.617785
21.554192  0.714377
21.558192  0.776886
21.562324  0.795715
21.566256  0.789170
21.570326  0.775846
21.574191  0.748692
21.578197  0.683617
21.582190  0.571559
21.586190  0.433351
21.590190  0.298475
21.594202  0.175109
21.598192  0.049670
21.602189 -0.085507
21.606190 -0.214203
21.610189 -0.310991
21.614171 -0.367191
21.618201 -0.393291
21.622326 -0.396860
21.626191 -0.368841
21.630187 -0.300494
21.634194 -0.212300
21.638188 -0.156478
21.642198 -0.183365
21.646191 -0.305576
21.650198 -0.496051
21.654189 -0.710884
21.658190 -0.896284
21.662189 -0.967199
21.666199 -0.797598
21.670348 -0.267062
21.674200  0.648386
21.678190  1.806396
21.682189  2.911212
21.686202  3.624854
21.690193  3.727687
21.694197  3.225942
21.698202  2.325841
21.702191  1.302187
21.706189  0.369785
21.710202 -0.366803
21.714191 -0.891120
21.718199 -1.224926
21.722316 -1.390439
21.726197 -1.406113
21.730169 -1.307802
21.734335 -1.159990
21.738198 -1.031478
21.742189 -0.954323
21.746192 -0.910003
21.750189 -0.859266
21.754192 -0.784257
21.758200 -0.699063
21.762192 -0.622714
21.766197 -0.552908
21.770266 -0.473869
21.774201 -0.382908
21.778189 -0.296045
21.782205 -0.227283
21.786192 -0.173560
21.790189 -0.124046
21.794189 -0.075380
21.798190 -0.029766
21.802197  0.017867
21.806197  0.079515
21.810190  0.155609
21.814198  0.223932
21.818190  0.257607
21.822189  0.255004
21.826360  0.243339
21.830188  0.247677
21.834195  0.262602
21.838187  0.264605
21.842188  0.251215
21.846317  0.252932
21.850188  0.297163
21.854179  0.371127
21.858193  0.433998
21.862187  0.461553
21.866188  0.469132
21.870187  0.491940
21.874210  0.548115
21.878187  0.622446
21.882181  0.685176
21.886195  0.721098
21.890182  0.734185
21.894187  0.730631
21.898196  0.711182
21.902186  0.680799
21.906188  0.653777
21.910187  0.640738
21.914192  0.633620
21.918199  0.613263
21.922198  0.576047
21.926170  0.545347
21.930416  0.546954
21.934196  0.576075
21.938188  0.600220
21.942177  0.596468
21.946337  0.574907
21.950186  0.559770
21.954193  0.556516
21.958184  0.546343
21.962206  0.509478
21.966191  0.445708
21.970327  0.369917
21.974199  0.292778
21.978268  0.213705
21.982189  0.133651
21.986188  0.064818
21.990202  0.018529
21.994382 -0.013261
21.998332 -0.054895
22.002187 -0.123065
22.006190 -0.210894
22.010187 -0.297566
22.014195 -0.368080
22.018187 -0.418814
22.022190 -0.447688
22.026280 -0.449844
22.030193 -0.430939
22.034188 -0.418306
22.038187 -0.441536
22.042188 -0.493160
22.046199 -0.520081
22.050192 -0.470754
22.054192 -0.349963
22.058191 -0.214674
22.062188 -0.117411
22.066194 -0.066339
22.070195 -0.040479
22.074200 -0.027232
22.078265 -0.032015
22.082197 -0.056727
22.086197 -0.085789
22.090190 -0.101683
22.094190 -0.105892
22.098189 -0.114035
22.102206 -0.132250
22.106193 -0.148040
22.110199 -0.149311
22.114190 -0.146344
22.118189 -0.164148
22.122191 -0.211060
22.126190 -0.264446
22.130197 -0.295457
22.134189 -0.302407
22.138190 -0.308464
22.142191 -0.327656
22.146190 -0.346668
22.150197 -0.347184
22.154190 -0.337415
22.158190 -0.348578
22.162366 -0.399320
22.166187 -0.474443
22.170195 -0.544486
22.174187 -0.596759
22.178195 -0.635518
22.182195 -0.658497
22.186189 -0.651587
22.190188 -0.609167
22.194188 -0.546492
22.198187 -0.487392
22.202195 -0.446589
22.206187 -0.428112
22.210189 -0.436433
22.214188 -0.477306
22.218197 -0.537500
22.222189 -0.567807
22.226168 -0.507413
22.230295 -0.346351
22.234254 -0.158959
22.238195 -0.055434
22.242187 -0.094533
22.246175 -0.239602
22.250196  0.195391
22.254188  0.195105
22.258187  0.173665
22.262196  0.136044
22.266188  0.112560
22.270190  0.128488
22.274187  0.175965
22.278189  0.223792
22.282194  0.256276
22.286188  0.292970
22.290187  0.363533
22.294188  0.469271
22.298195  0.578718
22.302188  0.659862
22.306188  0.707442
22.310399  0.735007
22.314190  0.748259
22.318197  0.735755
22.322197  0.684963
22.326190  0.600000
22.330189  0.499552
22.334198  0.398733
22.338296  0.297671
22.342191  0.191474
22.346197  0.086094
22.350197 -0.006491
22.354191 -0.088034
22.358187 -0.174609
22.362195 -0.270587
22.366187 -0.353362
22.370188 -0.396381
22.374397 -0.402185
22.378316 -0.399250
22.382197 -0.407078
22.386283 -0.420185
22.390453 -0.434358
22.394196 -0.474666
22.398187 -0.578521
22.402195 -0.749459
22.406188 -0.935113
22.410194 -1.045167
22.414196 -0.977247
22.418187 -0.631118
22.422195  0.064344
22.426195  1.087652
22.430195  2.258995
22.434270  3.255264
22.438199  3.748908
22.442197  3.591367
22.446184  2.888877
22.450191  1.907004
22.454180  0.903619
22.458200  0.035573
22.462190 -0.626974
22.466322 -1.056480
22.470199 -1.259638
22.474193 -1.288092
22.478189 -1.222284
22.482311 -1.128342
22.486226 -1.031139
22.490196 -0.928358
22.494242 -0.819697
22.498341 -0.713215
22.502193 -0.611867
22.506184 -0.511889
22.510188 -0.417257
22.514179 -0.342420
22.518283 -0.293841
22.522252 -0.256135
22.526181 -0.205166
22.530163 -0.134897
22.534161 -0.065281
22.538449 -0.019913
22.542298  0.002306
22.546168  0.029323
22.550165  0.087114
22.554196  0.170084
22.558188  0.244674
22.562238  0.282595
22.566192  0.286447
22.570189  0.283056
22.574238  0.295296
22.578192  0.322421
22.582183  0.349799
22.586199  0.373452
22.590967  0.404068
22.594196  0.447525
22.598191  0.494598
22.602188  0.534217
22.606188  0.567754
22.610202  0.602719
22.614201  0.636717
22.618197  0.658125
22.622191  0.664503
22.626197  0.670466
22.630190  0.690094
22.634188  0.717063
22.638190  0.731439
22.642189  0.725631
22.646198  0.715386
22.650189  0.721538
22.654190  0.745600
22.658202  0.768598
22.662192  0.773220
22.666189  0.761072
22.670190  0.743660
22.674363  0.721321
22.678195  0.681042
22.682188  0.616528
22.686202  0.541290
22.690201  0.474641
22.694197  0.418893
22.698188  0.359537
22.702187  0.287879
22.706198  0.213434
22.710188  0.148796
22.714195  0.090007
22.718195  0.021461
22.722196 -0.061049
22.726187 -0.140778
22.730195 -0.197053
22.734187 -0.225966
22.738186 -0.239627
22.742193 -0.250967
22.746195 -0.265603
22.750196 -0.285558
22.754188 -0.315256
22.758195 -0.359359
22.762196 -0.411713
22.766182 -0.451772
22.770195 -0.462147
22.774196 -0.449414
22.778396 -0.437697
22.782188 -0.439146
22.786237 -0.439487
22.790199 -0.418119
22.794192 -0.375861
22.798199 -0.335022
22.802197 -0.315026
22.806198 -0.316911
22.810187 -0.332929
22.814171 -0.358774
22.818413 -0.383838
22.822194 -0.377792
22.826190 -0.308096
22.830195 -0.176815
22.834240 -0.030636
22.838169  0.071861
22.842350  0.104424
22.846196  0.087197
22.850416  0.060072
22.854195  0.047086
22.858197  0.047928
22.862193  0.054954
22.866190  0.066927
22.870189  0.082695
22.874198  0.088235
22.878189  0.061995
22.882190 -0.002258
22.886190 -0.085023
22.890192 -0.158290
22.894199 -0.208110
22.898202 -0.237657
22.902318 -0.254700
22.906188 -0.261543
22.910187 -0.257613
22.914188 -0.250020
22.918195 -0.254466
22.922187 -0.279064
22.926187 -0.311362
22.930188 -0.329592
22.934187 -0.326978
22.938195 -0.319035
22.942188 -0.325292
22.946188 -0.350213
22.950187 -0.387162
22.954188 -0.434286
22.958195 -0.494488
22.962188 -0.559685
22.966187 -0.607778
22.970255 -0.622729
22.974313 -0.611020
22.978189 -0.590769
22.982198 -0.568659
22.986197 -0.535971
22.990202 -0.487622
22.994328 -0.436818
22.998187 -0.403004
23.002208 -0.385689
23.006193 -0.358746
23.010238 -0.298189
23.014190 -0.212743
23.018197 -0.137909
23.022192 -0.098311
23.026190 -0.084177
23.030393 -0.069224
23.034191 -0.042602
23.038189 -0.011917
23.042192  0.022070
23.046362  0.077495
23.050186  0.168492
23.054194  0.278742
23.058181  0.370892
23.062188  0.421823
23.066195  0.439656
23.070195  0.444441
23.074187  0.440693
23.078187  0.415887
23.082195  0.362559
23.086188  0.292182
23.090195  0.221547
23.094188  0.150729
23.098319  0.065392
23.102259 -0.038336
23.106191 -0.143003
23.110197 -0.230173
23.114190 -0.301650
23.118199 -0.367768
23.122194 -0.418219
23.126189 -0.421310
23.130189 -0.361665
23.134176 -0.272539
23.138236 -0.220469
23.142193 -0.253899
23.146183 -0.367863
23.150267 -0.520994
23.154297 -0.682154
23.158190 -0.843274
23.162189 -0.972956
23.166197 -0.967126
23.170191 -0.671062
23.174191  0.024409
23.178182  1.082275
23.182390  2.286348
23.186366  3.302420
23.190188  3.814808
23.194196  3.677076
23.198186  2.981427
23.202205  1.988178
23.206199  0.970718
23.210179  0.099267
23.214179 -0.570782
23.218188 -1.042366
23.222193 -1.326135
23.226176 -1.432621
23.230187 -1.392712
23.234196 -1.269633
23.238322 -1.138072
23.242188 -1.043117
23.246195 -0.980352
23.250186 -0.920045
23.254183 -0.847684
23.258195 -0.774693
23.262196 -0.713570
23.266187 -0.656758
23.270376 -0.588064
23.274365 -0.507311
23.278192 -0.431905
23.282189 -0.374735
23.286198 -0.331542
23.290368 -0.295029
23.294188 -0.273076
23.298195 -0.280878
23.302196 -0.313642
23.306187 -0.338621
23.310202 -0.323611
23.314192 -0.268763
23.318190 -0.201736
23.322190 -0.143413
23.326189 -0.086733
23.330197 -0.011749
23.334198  0.084492
23.338190  0.179716
23.342197  0.247296
23.346190  0.279480
23.350191  0.287963
23.354189  0.287967
23.358202  0.289199
23.362192  0.300146
23.366189  0.331206
23.370318  0.385964
23.374192  0.450407
23.378191  0.499148
23.382190  0.518751
23.386197  0.521809
23.390189  0.532359
23.394189  0.560391
23.398190  0.597103
23.402190  0.631522
23.406199  0.659998
23.410193  0.677052
23.414183  0.672722
23.418182  0.652671
23.422197  0.646606
23.426433  0.672725
23.430186  0.700999
23.434449  0.677334
23.438186  0.584318
23.442195  0.459917
23.446195  0.355333
23.450190  0.287161
23.454189  0.231887
23.458199  0.157299
23.462190  0.055989
23.466190 -0.047484
23.470189 -0.120078
23.474190 -0.149802
23.478202 -0.150268
23.482197 -0.140649
23.486201 -0.131369
23.490183 -0.131637
23.494188 -0.159669
23.498191 -0.233249
23.502190 -0.348662
23.506326 -0.474653
23.510187 -0.572928
23.514195 -0.627369
23.518202 -0.651379
23.522199 -0.664615
23.526197 -0.669156
23.530188 -0.657542
23.534196 -0.637421
23.538197 -0.631513
23.542190 -0.651936
23.546197 -0.687919
23.550357 -0.722225
23.554198 -0.746155
23.558197 -0.751226
23.562191 -0.719752
23.566183 -0.636189
23.570303 -0.504975
23.574185 -0.355297
23.578204 -0.229187
23.582195 -0.156525
23.586197 -0.134175
23.590197 -0.133872
23.594198 -0.134289
23.598189 -0.138981
23.602197 -0.158380
23.606197 -0.183178
23.610197 -0.188613
23.614264 -0.165672
23.618190 -0.136458
23.622197 -0.130765
23.626189 -0.152351
23.630189 -0.176335
23.634189 -0.177340
23.638200 -0.152287
23.642191 -0.117300
23.646201 -0.093477
23.650190 -0.101407
23.654197 -0.160121
23.658190 -0.274881
23.662197 -0.421143
23.666197 -0.552103
23.670194 -0.633581
23.674191 -0.670198
23.678190 -0.691906
23.682198 -0.717605
23.686195 -0.738709
23.690182 -0.739557
23.694204 -0.726739
23.698404 -0.727458
23.702196 -0.755800
23.706195 -0.789716
23.710188 -0.788864
23.714195 -0.730222
23.718252 -0.621515
23.722197 -0.487875
23.726174 -0.355733
23.730195 -0.250201
23.734191 -0.197061
23.738195 -0.210317
23.742193 -0.272302
23.746298 -0.339104
23.750187 -0.377946
23.754189 -0.396835
23.758187 -0.430595
23.762169 -0.498248
23.766197 -0.579356
23.770188 -0.633542
23.774171 -0.636941
23.778167 -0.592729
23.782232 -0.510253
23.786536 -0.388385
23.790178 -0.228948
23.794193 -0.058478
23.798199  0.082635
23.802251  0.179667
23.806190  0.258630
23.810201  0.350569
23.814195  0.448911
23.818191  0.514197
23.822199  0.516918
23.826192  0.463318
23.830197  0.379724
23.834197  0.284360
23.838190  0.179982
23.842190  0.065827
23.846189 -0.054301
23.850189 -0.178284
23.854197 -0.311392
23.858229 -0.455378
23.862197 -0.592062
23.866358 -0.687458
23.870248 -0.719571
23.874166 -0.701370
23.878198 -0.671065
23.882332 -0.656673
23.886333 -0.652392
23.890188 -0.632375
23.894187 -0.585086
23.898395 -0.531373
23.902191 -0.512392
23.906189 -0.564957
23.910197 -0.707848
23.914197 -0.940767
23.918197 -1.235384
23.922197 -1.513374
23.926177 -1.641016
23.930181 -1.465445
23.934196 -0.881943
23.938186  0.097941
23.942188  1.308765
23.946187  2.451088
23.950188  3.184245
23.954199  3.273338
23.958190  2.711924
23.962189  1.724405
23.966198  0.637721
23.970189 -0.281406
23.974190 -0.916506
23.978189 -1.285633
23.982190 -1.462633
23.986198 -1.507421
23.990191 -1.451412
23.994189 -1.324417
23.998197 -1.174087
24.002193 -1.053236
24.006193 -0.992380
24.010186 -0.984852
24.014185 -0.994888
24.018450 -0.981933
24.022261 -0.924675
24.026185 -0.828519
24.030197 -0.716685
24.034171 -0.618313
24.038199 -0.556410
24.042188 -0.532685
24.046197 -0.522350
24.050190 -0.492390
24.054414 -0.429818
24.058188 -0.350856
24.062187 -0.280355
24.066195 -0.224437
24.070187 -0.169054
24.074188 -0.103939
24.078187 -0.037746
24.082205  0.014920
24.086192  0.053265
24.090190  0.087217
24.094190  0.117143
24.098202  0.129975
24.102193  0.122033
24.106189  0.117453
24.110199  0.153194
24.114199  0.245198
24.118267  0.375665
24.122462  0.514066
24.126463  0.642447
24.130197  0.756102
24.134198  0.850036
24.138319  0.919945
24.142207  0.976858
24.146201  1.045948
24.150197  1.140072
24.154190  1.238794
24.158197  1.303709
24.162189  1.316848
24.166191  1.298466
24.170189  1.283556
24.174189  1.285163
24.178202  1.287517
24.182191  1.274941
24.186199  1.258852
24.190359  1.268850
24.194197  1.319437
24.198200  1.392297
24.202208  1.449648
24.206190  1.456390
24.210367  1.393559
24.214187  1.268270
24.218187  1.114997
24.222208  0.976951
24.226368  0.882189
24.230195  0.832204
24.234195  0.802681
24.238187  0.757798
24.242188  0.675388
24.246187  0.563006
24.250225 -0.095906
24.254189  0.052278
24.258276  0.141199
24.262195  0.155233
24.266373  0.121463
24.270195  0.073245
24.274189  0.022058
24.278186 -0.038469
24.282187 -0.110437
24.286200 -0.178709
24.290189 -0.220491
24.294189 -0.227968
24.298188 -0.218195
24.302187 -0.214963
24.306195 -0.223508
24.310190 -0.230676
24.314190 -0.225518
24.318195 -0.209059
24.322197 -0.185496
24.326412 -0.153145
24.330298 -0.109687
24.334243 -0.065954
24.338190 -0.044837
24.342163 -0.057092
24.346165 -0.085118
24.350343 -0.103068
24.354191 -0.109415
24.358189 -0.126978
24.362190 -0.170435
24.366202 -0.224978
24.370190 -0.261860
24.374183 -0.268450
24.378189 -0.256999
24.382195 -0.247127
24.386185 -0.246708
24.390185 -0.250494
24.394200 -0.251163
24.398199 -0.246542
24.402190 -0.237377
24.406189 -0.224671
24.410197 -0.214138
24.414189 -0.219670
24.418312 -0.254588
24.422198 -0.317265
24.426189 -0.388142
24.430198 -0.442901
24.434198 -0.470121
24.438197 -0.476442
24.442197 -0.473139
24.446198 -0.461563
24.450189 -0.439086
24.454197 -0.415357
24.458197 -0.409222
24.462190 -0.426372
24.466197 -0.450139
24.470193 -0.459818
24.474190 -0.451017
24.478246 -0.434279
24.482199 -0.421325
24.486184 -0.415866
24.490190 -0.413459
24.494201 -0.409946
24.498195 -0.409112
24.502197 -0.416747
24.506192 -0.429295
24.510197 -0.437136
24.514190 -0.438788
24.518197 -0.442847
24.522323 -0.453190
24.526189 -0.457901
24.530325 -0.438880
24.534196 -0.394607
24.538195 -0.349601
24.542187 -0.333483
24.546189 -0.346213
24.550198 -0.350314
24.554479 -0.308008
24.558464 -0.221796
24.562197 -0.125290
24.566198 -0.040894
24.570189  0.034666
24.574192  0.107500
24.578189  0.172496
24.582198  0.228406
24.586197  0.290232
24.590326  0.371437
24.594202  0.456990
24.598191  0.506989
24.602189  0.492084
24.606197  0.419589
24.610191  0.320674
24.614173  0.218035
24.618198  0.114875
24.622208  0.012085
24.626199 -0.078039
24.630171 -0.141873
24.634198 -0.182022
24.638245 -0.217498
24.642197 -0.263769
24.646190 -0.315356
24.650189 -0.355216
24.654200 -0.381791
24.658192 -0.415253
24.662189 -0.470521
24.666197 -0.535892
24.670189 -0.592788
24.674190 -0.652872
24.678189 -0.759835
24.682191 -0.948200
24.686197 -1.206869
24.690190 -1.482202
24.694189 -1.696513
24.698190 -1.745695
24.702189 -1.495111
24.706197 -0.827305
24.710197  0.255636
24.714402  1.553158
24.718195  2.702606
24.722405  3.343289
24.726199  3.306470
24.730188  2.685587
24.734188  1.739784
24.738195  0.735371
24.742450 -0.146676
24.746191 -0.816778
24.750189 -1.251915
24.754201 -1.475844
24.758310 -1.539063
24.762189 -1.490189
24.766184 -1.357119
24.770246 -1.160768
24.774194 -0.941907
24.778460 -0.756416
24.782188 -0.637531
24.786364 -0.572902
24.790196 -0.527287
24.794187 -0.485073
24.798188 -0.463196
24.802187 -0.481342
24.806190 -0.528273
24.810195 -0.566911
24.814195 -0.571071
24.818187 -0.547691
24.822195 -0.520599
24.826188 -0.500740
24.830188 -0.478213
24.834187 -0.438463
24.838201 -0.377090
24.842190 -0.296626
24.846202 -0.197631
24.850195 -0.083592
24.854198  0.027445
24.858189  0.109682
24.862190  0.155435
24.866189  0.187577
24.870190  0.235365
24.874203  0.294457
24.878281  0.315889
24.882194  0.245334
24.886200  0.089274
24.890199 -0.052279
24.894361 -0.049184
24.898195  0.130945
24.902188  0.381332
24.906284  0.567265
24.910191  0.645595
24.914190  0.658670
24.918422  0.657516
24.922187  0.663844
24.926163  0.685797
24.930184  0.735382
24.934173  0.816961
24.938191  0.909901
24.942196  0.979987
24.946373  1.010137
24.950188  1.009400
24.954186  0.991906
24.958196  0.961120
24.962187  0.920172
24.966397  0.884477
24.970167  0.868701
24.974188  0.861796
24.978202  0.829770
24.982191  0.752440
24.986189  0.649547
24.990196  0.559563
24.994200  0.496764
24.998187  0.441181
25.002206  0.371433
25.006202  0.295840
25.010189  0.242987
25.014197  0.226179
25.018202  0.227730
25.022194  0.220325
25.026374  0.193947
25.030195  0.153636
25.034187  0.098425
25.038185  0.020552
25.042310 -0.069108
25.046229 -0.133192
25.050161 -0.143981
25.054182 -0.118926
25.058214 -0.099921
25.062194 -0.098914
25.066193 -0.084239
25.070450 -0.028266
25.074164  0.047099
25.078195  0.086755
25.082384  0.058651
25.086192 -0.013932
25.090189 -0.071916
25.094201 -0.070842
25.098621 -0.018160
25.102196  0.038719
25.106195  0.060546
25.110195  0.045023
25.114187  0.012265
25.118195 -0.019269
25.122196 -0.036379
25.126196 -0.027214
25.130196  0.009638
25.134257  0.054447
25.138300  0.077985
25.142190  0.068701
25.146390  0.042528
25.150190  0.021573
25.154190  0.006835
25.158196 -0.021172
25.162188 -0.073569
25.166195 -0.132566
25.170467 -0.168790
25.174187 -0.176954
25.178181 -0.180777
25.182195 -0.197454
25.186234 -0.210400
25.190189 -0.189629
25.194189 -0.134273
25.198190 -0.081709
25.202190 -0.070374
25.206204 -0.101583
25.210192 -0.145859
25.214185 -0.181688
25.218249 -0.212708
25.222194 -0.240594
25.226445 -0.238139
25.230194 -0.172491
25.234167 -0.054728
25.238255  0.050718
25.242193  0.071736
25.246195 -0.016592
25.250195 -0.169691
25.254191 -0.293858
25.258268 -0.305668
25.262195 -0.199252
25.266188 -0.053503
25.270188  0.036612
25.274194  0.026676
25.278188 -0.066005
25.282196 -0.181457
25.286188 -0.246203
25.290187 -0.215467
25.294187 -0.105155
25.298446  0.020488
25.302195  0.100685
25.306187  0.123583
25.310188  0.123573
25.314367  0.138135
25.318188  0.175757
25.322183  0.227454
25.326187  0.294120
25.330183  0.384868
25.334188  0.491607
25.338191  0.583804
25.342196  0.635954
25.346209  0.650889
25.350191  0.647454
25.354188  0.630095
25.358181  0.582957
25.362208  0.497172
25.366192  0.392567
25.370199  0.301088
25.374246  0.231332
25.378190  0.161157
25.382197  0.070192
25.386190 -0.030025
25.390197 -0.109131
25.394198 -0.156190
25.398189 -0.191155
25.402191 -0.236100
25.406189 -0.287831
25.410190 -0.328725
25.414197 -0.357119
25.418190 -0.393467
25.422189 -0.457788
25.426190 -0.553800
25.430189 -0.678797
25.434198 -0.837366
25.438191 -1.029667
25.442190 -1.216162
25.446189 -1.292340
25.450191 -1.109711
25.454197 -0.546592
25.458193  0.408750
25.462187  1.608248
25.466187  2.757996
25.470203  3.513988
25.474191  3.638515
25.478189  3.125797
25.482197  2.196903
25.486189  1.164793
25.490189  0.274385
25.494190 -0.377259
25.498189 -0.814397
25.502190 -1.099948
25.506200 -1.271172
25.510192 -1.333874
25.514189 -1.295483
25.518199 -1.186659
25.522195 -1.047818
25.526198 -0.905256
25.530172 -0.769785
25.534185 -0.652697
25.538198 -0.567865
25.542244 -0.513419
25.546198 -0.462252
25.550197 -0.383417
25.554328 -0.274553
25.558189 -0.166381
25.562196 -0.092051
25.566194 -0.055485
25.570188 -0.030716
25.574250  0.013031
25.578198  0.088370
25.582189  0.185805
25.586198  0.284180
25.590184  0.360352
25.594179  0.392356
25.598200  0.367248
25.602192  0.297852
25.606189  0.228308
25.610455  0.210148
25.614197  0.263593
25.618196  0.362648
25.622190  0.464269
25.626197  0.551325
25.630195  0.638370
25.634187  0.737598
25.638187  0.834603
25.642195  0.904278
25.646169  0.940356
25.650187  0.958101
25.654188  0.971411
25.658203  0.981479
25.662262  0.993477
25.666402  1.032353
25.670234  1.125428
25.674178  1.264933
25.678185  1.397795
25.682697  1.464698
25.686195  1.451416
25.690193  1.394483
25.694185  1.336041
25.698188  1.286283
25.702187  1.234884
25.706188  1.182739
25.710195  1.145885
25.714188  1.131905
25.718187  1.128426
25.722188  1.119850
25.726189  1.102997
25.730194  1.076048
25.734188  1.021216
25.738195  0.917004
25.742188  0.771512
25.746395  0.626413
25.750191  0.515074
25.754188  0.429012
25.758195  0.339324
25.762197  0.240224
25.766286  0.156433
25.770197  0.110505
25.774254  0.092838
25.778193  0.069473
25.782198  0.021098
25.786291 -0.029598
25.790199 -0.038135
25.794192  0.012391
25.798183  0.092214
25.802186  0.158714
25.806199  0.197138
25.810190  0.222178
25.814173  0.252148
25.818232  0.290808
25.822207  0.327977
25.826197  0.351168
25.830197  0.355588
25.834243  0.343364
25.838197  0.319695
25.842197  0.296748
25.846200  0.294314
25.850404  0.323262
25.854192  0.367746
25.858185  0.395059
25.862188  0.389077
25.866195  0.368562
25.870196  0.365882
25.874302  0.390139
25.878349  0.419610
25.882191  0.432643
25.886189  0.437455
25.890189  0.461625
25.894202  0.513321
25.898192  0.564690
25.902190  0.579756
25.906202  0.549508
25.910191  0.489101
25.914190  0.407894
25.918190  0.300256
25.922209  0.168938
25.926193  0.041241
25.930189 -0.050799
25.934191 -0.101806
25.938197 -0.134604
25.942198 -0.170191
25.946323 -0.204586
25.950189 -0.220944
25.954187 -0.219919
25.958195 -0.226594
25.962187 -0.260087
25.966195 -0.301091
25.970403 -0.302729
25.974195 -0.241082
25.978187 -0.147888
25.982206 -0.083098
25.986191 -0.079393
25.990189 -0.124900
25.994191 -0.194663
25.998189 -0.279172
26.002208 -0.376073
26.006201 -0.470292
26.010189 -0.539960
26.014189 -0.581224
26.018190 -0.613124
26.022189 -0.650660
26.026197 -0.681141
26.030189 -0.678632
26.034189 -0.640926
26.038195 -0.599074
26.042190 -0.582107
26.046190 -0.580506
26.050189 -0.558053
26.054190 -0.499776
26.058198 -0.433627
26.062197 -0.395525
26.066322 -0.382851
26.070195 -0.357257
26.074265 -0.289809
26.078293 -0.187515
26.082197 -0.074701
26.086198  0.034279
26.090189  0.133860
26.094190  0.210284
26.098187  0.243963
26.102190  0.232623
26.106199  0.198051
26.110178  0.157298
26.114177  0.094817
26.118170 -0.020369
26.122181 -0.188606
26.126197 -0.362799
26.130197 -0.484323
26.134197 -0.532053
26.138228 -0.532658
26.142195 -0.527676
26.146170 -0.538764
26.150197 -0.567084
26.154188 -0.616615
26.158187 -0.701634
26.162188 -0.825359
26.166195 -0.961977
26.170197 -1.072758
26.174555 -1.142377
26.178375 -1.195425
26.182397 -1.276351
26.186187 -1.415968
26.190195 -1.617315
26.194187 -1.863664
26.198188 -2.118802
26.202187 -2.302529
26.206194 -2.275412
26.210183 -1.882345
26.214330 -1.049074
26.218416  0.133448
26.222312  1.399175
26.226308  2.392409
26.230196  2.821038
26.234195  2.591972
26.238202  1.826819
26.242192  0.747464
26.246190 -0.456208
26.250202 -0.269655
26.254192 -0.799571
26.258358 -1.225533
26.262189 -1.491882
26.266447 -1.597740
26.270196 -1.576988
26.274197 -1.481410
26.278197 -1.363739
26.282405 -1.253838
26.286200 -1.147708
26.290188 -1.028192
26.294195 -0.899389
26.298197 -0.793373
26.302208 -0.737589
26.306192 -0.722860
26.310190 -0.713450
26.314190 -0.684695
26.318189 -0.638779
26.322171 -0.584171
26.326234 -0.515630
26.330246 -0.426499
26.334243 -0.333387
26.338271 -0.268909
26.342206 -0.241021
26.346197 -0.213774
26.350182 -0.145724
26.354198 -0.041869
26.358190  0.048203
26.362190  0.082668
26.366190  0.067472
26.370190  0.043596
26.374200  0.042923
26.378199  0.064393
26.382199  0.092133
26.386322  0.124212
26.390195  0.172239
26.394187  0.237302
26.398187  0.301297
26.402195  0.347882
26.406195  0.383445
26.410186  0.428838
26.414186  0.494094
26.418376  0.571242
26.422263  0.652807
26.426439  0.745183
26.430252  0.854523
26.434192  0.967329
26.438456  1.059168
26.442187  1.122725
26.446200  1.174674
26.450192  1.227871
26.454268  1.264516
26.458191  1.250142
26.462197  1.177310
26.466197  1.084229
26.470197  1.020003
26.474398  0.997361
26.478197  0.988597
26.482195  0.960615
26.486190  0.902406
26.490189  0.822441
26.494195  0.731783
26.498196  0.635561
26.502186  0.538253
26.506195  0.449360
26.510197  0.375612
26.514189  0.307692
26.518188  0.223344
26.522187  0.109994
26.526188 -0.017569
26.530202 -0.127974
26.534192 -0.203618
26.538190 -0.254945
26.542208 -0.300283
26.546192 -0.337537
26.550197 -0.346677
26.554312 -0.321234
26.558203 -0.285104
26.562192 -0.269069
26.566189 -0.277746
26.570200 -0.290651
26.574189 -0.292468
26.578332 -0.289142
26.582198 -0.290463
26.586200 -0.288336
26.590193 -0.264602
26.594189 -0.218915
26.598197 -0.178218
26.602189 -0.173373
26.606197 -0.209757
26.610198 -0.265345
26.614189 -0.316428
26.618197 -0.357462
26.622197 -0.391052
26.626189 -0.407408
26.630190 -0.388848
26.634189 -0.337150
26.638211 -0.283304
26.642191 -0.259633
26.646189 -0.267218
26.650188 -0.280889
26.654199 -0.284202
26.658190 -0.286348
26.662189 -0.298515
26.666190 -0.304563
26.670189 -0.271544
26.674198 -0.192656
26.678189 -0.107997
26.682198 -0.071800
26.686462 -0.101425
26.690195 -0.167824
26.694187 -0.235477
26.698189 -0.299078
26.702188 -0.373985
26.706195 -0.460413
26.710187 -0.532167
26.714189 -0.563484
26.718197 -0.557030
26.722189 -0.537077
26.726168 -0.518084
26.730194 -0.489929
26.734172 -0.436811
26.738260 -0.360527
26.742193 -0.274969
26.746194 -0.183476
26.750417 -0.079673
26.754192  0.023384
26.758190  0.083104
26.762190  0.064851
26.766197 -0.014792
26.770171 -0.096275
26.774189 -0.130281
26.778190 -0.115805
26.782189 -0.085875
26.786199 -0.066158
26.790386 -0.057110
26.794188 -0.052999
26.798195 -0.062632
26.802187 -0.100874
26.806187 -0.165506
26.810189 -0.233874
26.814188 -0.283802
26.818195 -0.309529
26.822187 -0.313147
26.826187 -0.288646
26.830187 -0.225496
26.834186 -0.128306
26.838195 -0.022378
26.842192  0.068677
26.846189  0.147984
26.850191  0.240724
26.854189  0.365769
26.858198  0.520418
26.862197  0.692315
26.866191  0.872486
26.870204  1.047601
26.874192  1.187332
26.878190  1.254336
26.882263  1.233252
26.886198  1.146343
26.890191  1.035397
26.894233  0.927623
26.898195  0.822424
26.902179  0.711157
26.906398  0.600402
26.910197  0.506011
26.914231  0.429055
26.918192  0.352506
26.922382  0.266460
26.926377  0.186882
26.930192  0.140215
26.934189  0.132122
26.938190  0.140950
26.942189  0.143601
26.946197  0.137144
26.950184  0.125409
26.954177  0.089061
26.958196 -0.014950
26.962261 -0.213165
26.966293 -0.479960
26.970191 -0.750822
26.974189 -0.959720
26.978186 -1.039142
26.982195 -0.885752
26.986195 -0.368528
26.990201  0.577342
26.994237  1.832022
26.998196  3.065239
27.002193  3.870368
27.006188  3.990691
27.010247  3.461302
27.014172  2.552200
27.018197  1.586393
27.022198  0.792653
27.026466  0.262341
27.030196 -0.026026
27.034195 -0.159766
27.038195 -0.236508
27.042197 -0.314108
27.046199 -0.394303
27.050189 -0.451089
27.054189 -0.472453
27.058191 -0.470992
27.062386 -0.459127
27.066255 -0.428483
27.070190 -0.362946
27.074190 -0.267073
27.078190 -0.171329
27.082190 -0.106870
27.086197 -0.080219
27.090325 -0.074944
27.094189 -0.073576
27.098286 -0.072088
27.102316 -0.072607
27.106199 -0.069375
27.110192 -0.052301
27.114197 -0.025255
27.118311 -0.007138
27.122190 -0.002516
27.126198  0.020264
27.130190  0.098602
27.134190  0.216464
27.138366  0.300024
27.142186  0.292779
27.146197  0.217075
27.150190  0.141476
27.154189  0.106566
27.158190  0.103925
27.162208  0.112863
27.166199  0.132148
27.170198  0.171549
27.174189  0.226888
27.178190  0.277355
27.182189  0.307891
27.186190  0.325750
27.190197  0.349386
27.194198  0.384497
27.199210  0.418710
27.202356  0.441639
27.206186  0.464251
27.210195  0.510907
27.214195  0.590220
27.218361  0.680605
27.222205  0.751542
27.226192  0.794429
27.230453  0.822949
27.234308  0.845907
27.238188  0.853397
27.242195  0.833611
27.246188  0.791674
27.250377  0.743031
27.254192  0.693839
27.258189  0.637122
27.262190  0.567500
27.266197  0.490721
27.270190  0.412581
27.274189  0.324083
27.278190  0.212413
27.282400  0.091624
27.286189  0.006564
27.290493 -0.008747
27.294196  0.029379
27.298196  0.066473
27.302409  0.057496
27.306191 -0.003218
27.310192 -0.092756
27.314185 -0.187680
27.318191 -0.274235
27.322195 -0.337486
27.326193 -0.357077
27.330193 -0.323806
27.334242 -0.258401
27.338387 -0.206399
27.342167 -0.204759
27.346166 -0.249064
27.350195 -0.299149
27.354321 -0.320622
27.358314 -0.315061
27.362208 -0.306957
27.366198 -0.311172
27.370188 -0.323697
27.374187 -0.339332
27.378189 -0.363366
27.382187 -0.399714
27.386195 -0.436118
27.390189 -0.452355
27.394379 -0.443489
27.398202 -0.424916
27.402190 -0.408922
27.406197 -0.386392
27.410184 -0.345425
27.414197 -0.302996
27.418190 -0.297815
27.422197 -0.344773
27.426198 -0.410830
27.430189 -0.448219
27.434191 -0.446115
27.438189 -0.437403
27.442208 -0.454036
27.446192 -0.488812
27.450197 -0.508920
27.454191 -0.496947
27.458189 -0.464793
27.462361 -0.429985
27.466198 -0.393272
27.470186 -0.347095
27.474198 -0.299326
27.478190 -0.277032
27.482191 -0.301310
27.486190 -0.362155
27.490192 -0.425964
27.494197 -0.469631
27.498190 -0.499297
27.502197 -0.530004
27.506197 -0.557675
27.510185 -0.566972
27.514187 -0.562553
27.518188 -0.572375
27.522186 -0.613278
27.526293 -0.666981
27.530192 -0.702019
27.534190 -0.713326
27.538197 -0.725935
27.542189 -0.758043
27.546190 -0.794701
27.550197 -0.809569
27.554197 -0.806143
27.558189 -0.819979
27.562189 -0.872236
27.566189 -0.930845
27.570231 -0.934691
27.574199 -0.861029
27.578189 -0.754290
27.582197 -0.678131
27.586339 -0.652734
27.590191 -0.652121
27.594193 -0.650401
27.598171 -0.650724
27.602315 -0.668805
27.606192 -0.703868
27.610185 -0.735040
27.614163 -0.740211
27.618161 -0.709488
27.622229 -0.641654
27.626194 -0.536728
27.630192 -0.397666
27.634194 -0.235867
27.638193 -0.067085
27.642190  0.100372
27.646206  0.267061
27.650197  0.425798
27.654163  0.546757
27.658161  0.591113
27.662163  0.548081
27.666495  0.452187
27.670195  0.352843
27.674187  0.270296
27.678197  0.191581
27.682196  0.105081
27.686195  0.024923
27.690195 -0.024320
27.694195 -0.040759
27.698188 -0.052834
27.702206 -0.090552
27.706191 -0.155801
27.710471 -0.229251
27.714195 -0.304611
27.718181 -0.401883
27.722363 -0.535982
27.726187 -0.680712
27.730194 -0.780935
27.734195 -0.805185
27.738188 -0.779029
27.742195 -0.763188
27.746188 -0.805290
27.750187 -0.917564
27.754188 -1.090712
27.758187 -1.306418
27.762197 -1.520118
27.766194 -1.636846
27.770164 -1.524009
27.774193 -1.065803
27.778196 -0.224389
27.782195  0.918916
27.786188  2.150256
27.790195  3.156569
27.794429  3.633168
27.798187  3.436924
27.802188  2.673117
27.806187  1.629933
27.810199  0.612570
27.814190 -0.190271
27.818197 -0.730771
27.822345 -1.042705
27.826197 -1.174093
27.830195 -1.165137
27.834189 -1.063708
27.838185 -0.931450
27.842186 -0.817984
27.846185 -0.734151
27.850194 -0.662124
27.854185 -0.590115
27.858357 -0.526356
27.862352 -0.479513
27.866334 -0.439904
27.870189 -0.390168
27.874221 -0.329972
27.878192 -0.280217
27.882189 -0.259140
27.886191 -0.258631
27.890197 -0.250791
27.894189 -0.218700
27.898189 -0.174431
27.902190 -0.143182
27.906189 -0.134684
27.910197 -0.135519
27.914174 -0.126056
27.918202 -0.097434
27.922208 -0.051014
27.926197  0.012783
27.930244  0.098224
27.934195  0.205620
27.938196  0.325368
27.942315  0.444391
27.946191  0.553965
27.950188  0.649056
27.954239  0.723772
27.958192  0.771361
27.962190  0.791981
27.966202  0.800275
27.970190  0.817672
27.974197  0.851185
27.978202  0.884711
27.982192  0.898525
27.986189  0.894919
27.990202  0.895841
27.994234  0.913327
27.998190  0.931281
28.002197  0.923719
28.006202  0.885190
28.010260  0.834072
28.014197  0.790655
28.018197  0.765117
28.022196  0.765921
28.026184  0.804708
28.030201  0.884378
28.034260  0.984466
28.038193  1.063958
28.042182  1.087744
28.046202  1.056045
28.050192  1.002127
28.054199  0.955313
28.058194  0.911302
28.062197  0.844374
28.066198  0.743011
28.070170  0.623276
28.074197  0.507147
28.078193  0.399720
28.082187  0.295831
28.086188  0.200354
28.090187  0.127361
28.094244  0.078336
28.098282  0.034385
28.102189 -0.020821
28.106200 -0.076981
28.110192 -0.108439
28.114325 -0.110152
28.118192 -0.110230
28.122340 -0.138280
28.126202 -0.188114
28.130191 -0.224802
28.134190 -0.229117
28.138189 -0.222085
28.142208 -0.239394
28.146192 -0.290612
28.150189 -0.352482
28.154189 -0.397246
28.158202 -0.416553
28.162197 -0.417578
28.166190 -0.406896
28.170185 -0.387191
28.174186 -0.367387
28.178309 -0.363473
28.182332 -0.379606
28.186192 -0.392494
28.190199 -0.367155
28.194197 -0.295824
28.198177 -0.215837
28.202195 -0.178647
28.206188 -0.200897
28.210187 -0.251882
28.214184 -0.285975
28.218216 -0.279132
28.222188 -0.235393
28.226165 -0.170039
28.230182 -0.098338
28.234182 -0.041117
28.238251 -0.027861
28.242161 -0.078776
28.246187 -0.179177
