3.755011  0.240156
3.758993  0.249510
3.762964  0.285087
3.831051  0.354080
3.833362  0.441779
3.835728  0.521239
3.837756  0.568150
3.840147  0.578587
3.841949  0.575664
3.844079  0.590004
3.846343  0.630332
3.848617  0.678896
3.850444  0.715276
3.852210  0.736087
3.853964  0.750878
3.856191  0.768831
3.858331  0.794432
3.860572  0.828988
3.862990  0.866546
3.866981  0.887817
3.871026  0.867365
3.874984  0.794356
3.879257  0.685412
3.882984  0.574093
3.886984  0.486918
3.890984  0.426531
3.894996  0.374757
3.898986  0.313154
3.902994  0.240764
3.906985  0.170131
3.910984  0.110243
3.914984  0.058396
3.918991  0.006342
3.922984 -0.049087
3.926983 -0.101483
3.930985 -0.141626
3.934983 -0.168673
3.938992 -0.191134
3.942983 -0.215264
3.946987 -0.237113
3.950993 -0.252004
3.954994 -0.271443
3.958986 -0.322876
3.962986 -0.425460
3.966984 -0.568702
3.970984 -0.726112
3.974994 -0.890891
3.978994 -1.075739
3.982991 -1.254151
3.986984 -1.309164
3.990991 -1.070548
3.994984 -0.434580
3.998983  0.520420
4.002991  1.519641
4.006997  2.218913
4.010987  2.396669
4.014993  2.054424
4.018986  1.358728
4.022984  0.517029
4.026984 -0.299676
4.030984 -0.972885
4.034992 -1.433878
4.038984 -1.665225
4.042986 -1.699368
4.046984 -1.603119
4.050994 -1.450674
4.054994 -1.298703
4.058991 -1.174506
4.063196 -1.078638
4.066984 -0.997794
4.070983 -0.920448
4.075083 -0.845189
4.079028 -0.777598
4.082991 -0.722352
4.087028 -0.679644
4.090986 -0.648440
4.094962 -0.630840
4.098959 -0.629775
4.103095 -0.642122
4.106971 -0.657457
4.111213 -0.664882
4.114980 -0.659833
4.119147 -0.643551
4.122990 -0.617749
4.126982 -0.583795
4.130982 -0.547674
4.135036 -0.520675
4.138989 -0.511712
4.142979 -0.519888
4.146990 -0.535257
4.150981 -0.546443
4.154982 -0.548230
4.158981 -0.543583
4.162985 -0.540211
4.166989 -0.546107
4.170982 -0.567274
4.174981 -0.607655
4.178996 -0.669978
4.182986 -0.756153
4.186994 -0.865797
4.190984 -0.992901
4.194984 -1.121964
4.199154 -1.226117
4.202984 -1.275558
4.206996 -1.266468
4.210987 -1.251834
4.215132 -1.319741
4.218989 -1.510611
4.222982 -1.766055
4.226982 -1.980706
4.230990 -2.092668
4.234982 -2.114981
4.238982 -2.101883
4.242982 -2.100422
4.246982 -2.123997
4.250990 -2.156568
4.254982 -2.174377
4.258990 -2.163444
4.262990 -2.122251
4.266981 -2.055206
4.270983 -1.966610
4.274981 -1.857559
4.278983 -1.723886
4.282993 -1.557873
4.286987 -1.357942
4.290985 -1.140147
4.295126 -0.936522
4.299041 -0.775037
4.302984 -0.657248
4.306989 -0.556594
4.310989 -0.441360
4.314982 -0.301272
4.318983 -0.152716
4.322989 -0.019426
4.326989  0.089276
4.330984  0.180758
4.334982  0.265492
4.338982  0.346722
4.342989  0.420519
4.346982  0.480292
4.350982  0.522336
4.354982  0.551488
4.358984  0.581361
4.362990  0.624224
4.366982  0.677108
4.370982  0.719553
4.374992  0.730397
4.378983  0.711246
4.382987  0.690772
4.386988  0.698859
4.390983  0.737235
4.394992  0.781439
4.398983  0.808517
4.402989  0.815233
4.407006  0.810473
4.410975  0.797645
4.414987  0.770297
4.418990  0.724973
4.422983  0.672874
4.426982  0.633370
4.430982  0.616612
4.434982  0.616189
4.438989  0.618513
4.442982  0.616144
4.446982  0.611620
4.450982  0.611147
4.455046  0.616319
4.458991  0.621135
4.462991  0.615812
4.466984  0.593791
4.470982  0.556734
4.474983  0.514278
4.478982  0.478519
4.482990  0.456662
4.486989  0.446796
4.490982  0.439372
4.494996  0.423770
4.498988  0.396763
4.502984  0.365761
4.506992  0.341572
4.510984  0.327446
4.514992  0.317315
4.518994  0.304433
4.522984  0.288888
4.526991  0.276733
4.530984  0.275119
4.534992  0.289744
4.539038  0.324943
4.542977  0.383886
4.546984  0.467242
4.550992  0.570038
4.554984  0.680573
4.558984  0.786031
4.562984  0.880429
4.566984  0.964725
4.570992  1.038413
4.574984  1.093252
4.578984  1.117108
4.582984  1.103531
4.586995  1.055786
4.590988  0.981533
4.594991  0.886597
4.599249  0.775712
4.602984  0.656677
4.606975  0.540730
4.610982  0.439211
4.615117  0.359479
4.618986  0.300590
4.623412  0.252874
4.626988  0.205351
4.630980  0.153988
4.634981  0.101782
4.638980  0.052793
4.642988  0.008424
4.646980 -0.030866
4.650980 -0.062795
4.654980 -0.083517
4.658980 -0.089376
4.662987 -0.079036
4.666980 -0.058360
4.670980 -0.046374
4.674981 -0.072275
4.679281 -0.156786
4.682989 -0.291931
4.687113 -0.445549
4.691062 -0.592478
4.694966 -0.736275
4.699057 -0.885554
4.702963 -0.998611
4.706961 -0.958639
4.710961 -0.626899
4.714981  0.050629
4.718996  0.961980
4.723047  1.845528
4.726985  2.412870
4.730984  2.497004
4.734984  2.114729
4.738992  1.415710
4.742984  0.588342
4.746986 -0.204947
4.750984 -0.849601
4.754984 -1.283129
4.758991 -1.499076
4.762984 -1.541453
4.766984 -1.477572
4.770984 -1.363289
4.775026 -1.228157
4.778988 -1.086161
4.782987 -0.949617
4.786997 -0.828041
4.790984 -0.721159
4.794984 -0.622309
4.798984 -0.529155
4.802984 -0.447971
4.806991 -0.387749
4.810984 -0.351371
4.814984 -0.332041
4.818984 -0.318184
4.822987 -0.302340
4.826997 -0.285708
4.830984 -0.274563
4.834986 -0.272097
4.838982 -0.272639
4.842989 -0.263843
4.846982 -0.237075
4.850984 -0.198933
4.854994 -0.172141
4.859040 -0.179824
4.862981 -0.224716
4.866990 -0.284923
4.870981 -0.331428
4.874982 -0.348806
4.878982 -0.341725
4.882985 -0.328056
4.886989 -0.327422
4.890983 -0.351206
4.895085 -0.398051
4.898978 -0.456794
4.902988 -0.514305
4.906976 -0.563173
4.910990 -0.604866
4.914983 -0.646548
4.918981 -0.694706
4.922992 -0.751937
4.926981 -0.819475
4.930992 -0.901289
4.935032 -1.003839
4.938990 -1.129341
4.942989 -1.267560
4.946983 -1.396822
4.950981 -1.497720
4.954983 -1.566075
4.958991 -1.610572
4.962983 -1.640105
4.966983 -1.657551
4.970984 -1.663614
4.974980 -1.659620
4.978984 -1.643745
4.982991 -1.607011
4.986992 -1.535551
4.990985 -1.419683
4.994971 -1.263810
4.998981 -1.086225
5.003079 -0.906967
5.006977 -0.737378
5.010983 -0.580311
5.015023 -0.433523
5.019019 -0.289021
5.022982 -0.133134
5.026995  0.046269
5.031010  0.249256
5.034983  0.460396
5.038985  0.656657
5.042983  0.820737
5.046993  0.950384
5.050993  1.057268
5.054995  1.156298
5.058969  1.253718
5.063838  1.342144
5.067093  1.405889
5.071101  1.436020
5.074973  1.444525
5.078964  1.459154
5.082989  1.499578
5.086982  1.562650
5.090982  1.633165
5.095028  1.701366
5.099096  1.765434
5.102992  1.823161
5.106984  1.867296
5.110993  1.889466
5.114974  1.887959
5.118976  1.870081
5.122990  1.845723
5.127115  1.821016
5.130986  1.799414
5.134997  1.784769
5.138984  1.780052
5.142986  1.784553
5.146990  1.793925
5.150976  1.801997
5.154982  1.802353
5.158982  1.790834
5.162990  1.769338
5.166983  1.746379
5.170982  1.730665
5.174982  1.723095
5.178982  1.716844
5.182989  1.706126
5.186982  1.693820
5.190982  1.689464
5.194982  1.698941
5.198982  1.715747
5.203113  1.724204
5.206986  1.713437
5.210992  1.687568
5.214984  1.661556
5.218984  1.648890
5.222984  1.653768
5.226992  1.671475
5.230993  1.692472
5.235044  1.706054
5.238984  1.703527
5.242984  1.682722
5.246992  1.652455
5.250984  1.630493
5.254984  1.632535
5.258984  1.662487
5.262984  1.715610
5.266991  1.788400
5.270984  1.879656
5.274984  1.983169
5.279201  2.086951
5.282987  2.182704
5.286989  2.271621
5.291254  2.357130
5.294987  2.434599
5.298963  2.492922
5.303304  2.525589
5.306982  2.535134
5.310958  2.524815
5.314981  2.488303
5.318990  2.409827
5.322981  2.276520
5.326983  2.093483
5.330981  1.889203
5.335195  1.704962
5.338986  1.571770
5.342986  1.491992
5.346976  1.444338
5.350988  1.405780
5.354990  1.365510
5.358982  1.322875
5.362982  1.281138
5.366982  1.244418
5.370989  1.216149
5.374982  1.198574
5.378982  1.193601
5.382982  1.202704
5.386982  1.223541
5.390990  1.244409
5.394982  1.241602
5.398982  1.186192
5.402982  1.061951
5.406991  0.883530
5.410976  0.693073
5.415079  0.525953
5.418980  0.376880
5.422983  0.217495
5.426989  0.063924
5.430982  0.019578
5.434990  0.230961
5.438982  0.781232
5.442982  1.600704
5.446989  2.462154
5.450982  3.081074
5.454982  3.263250
5.458982  2.988746
5.462983  2.379348
5.466990  1.607637
5.470982  0.829590
5.474982  0.160993
5.478982 -0.326227
5.482982 -0.605787
5.486989 -0.696504
5.490982 -0.652821
5.494982 -0.544021
5.498984 -0.428756
5.502982 -0.338344
5.506990 -0.277420
5.510989 -0.236629
5.514981 -0.204714
5.519120 -0.173619
5.523158 -0.139721
5.526982 -0.104533
5.530982 -0.072791
5.534989 -0.047172
5.538990 -0.024942
5.542982 -0.000719
5.546983  0.026749
5.550983  0.050272
5.554991  0.058241
5.558982  0.044609
5.562984  0.014261
5.566994 -0.021725
5.570986 -0.054620
5.574984 -0.082604
5.579196 -0.111072
5.582988 -0.149423
5.586985 -0.202784
5.591045 -0.266247
5.594982 -0.332078
5.599033 -0.399254
5.603034 -0.468524
5.607235 -0.532990
5.611014 -0.583920
5.614987 -0.625354
5.618994 -0.673502
5.622976 -0.737193
5.627060 -0.806715
5.630994 -0.870492
5.635036 -0.936880
5.639157 -1.028571
5.642989 -1.157709
5.646981 -1.314108
5.650978 -1.475157
5.655264 -1.622585
5.658983 -1.753392
5.662975 -1.877652
5.666990 -2.006109
5.670981 -2.142993
5.674982 -2.288686
5.678981 -2.440094
5.682983 -2.586136
5.686989 -2.710627
5.690985 -2.804486
5.694981 -2.871946
5.698983 -2.921417
5.702981 -2.952504
5.706990 -2.955741
5.710981 -2.924406
5.715140 -2.861955
5.718985 -2.775762
5.722992 -2.668370
5.726990 -2.540871
5.730984 -2.403273
5.734984 -2.273775
5.738984 -2.163602
5.742992 -2.065704
5.747052 -1.962490
5.750983 -1.844123
5.754985 -1.717533
5.758983 -1.599620
5.762988 -1.504195
5.766987 -1.434138
5.770985 -1.383669
5.774984 -1.346379
5.778986 -1.319155
5.782988 -1.299754
5.786991 -1.284868
5.790983  0.312548
5.794985  0.380069
5.798983  0.428216
5.802988  0.452887
5.806989  0.466255
5.810984  0.484320
5.814984  0.514867
5.818984  0.556156
5.823024  0.601590
5.826990  0.640202
5.830981  0.656278
5.834963  0.639591
5.838962  0.600420
5.842991  0.566976
5.846985  0.561179
5.850958  0.579483
5.854959  0.600091
5.858965  0.605041
5.862976  0.593867
5.867185  0.581055
5.870982  0.583595
5.874983  0.606327
5.879278  0.630157
5.883033  0.610570
5.886983  0.499051
5.890991  0.291953
5.894964  0.071561
5.898979 -0.031865
5.902979  0.042273
5.906979  0.219002
5.910988  0.363628
5.915282  0.401380
5.918986  0.350901
5.922984  0.275518
5.927173  0.225668
5.930986  0.214536
5.934983  0.227133
5.938992  0.242512
5.942983  0.248466
5.946992  0.242030
5.950983  0.223363
5.954985  0.193768
5.958991  0.159146
5.962985  0.130069
5.966983  0.114524
5.970985  0.111833
5.974983  0.115385
5.978992  0.119872
5.982983  0.124756
5.986985  0.132114
5.990985  0.142736
5.994984  0.154532
5.998991  0.164032
6.002984  0.168787
6.006985  0.168177
6.010985  0.162607
6.014983  0.153521
6.018992  0.145923
6.022983  0.150461
6.026986  0.179982
6.030996  0.241627
6.034986  0.332249
6.038984  0.440829
6.042984  0.553748
6.046984  0.658765
6.050993  0.746826
6.054994  0.812328
6.058985  0.853694
6.063030  0.874300
6.066996  0.880275
6.070984  0.873980
6.074984  0.849225
6.078984  0.795531
6.082984  0.709448
6.086992  0.601073
6.090984  0.488336
6.094984  0.386473
6.098984  0.303836
6.102985  0.242701
6.106991  0.197661
6.110984  0.154176
6.114988  0.094593
6.118983  0.009545
6.122996 -0.094158
6.126970 -0.195607
6.130960 -0.272247
6.134973 -0.314166
6.138981 -0.327895
6.142987 -0.327642
6.146974 -0.324402
6.151120 -0.321995
6.154992 -0.319750
6.158983 -0.318307
6.163140 -0.325555
6.166984 -0.356536
6.170964 -0.422498
6.174965 -0.519581
6.179100 -0.636212
6.182994 -0.773151
6.187235 -0.940102
6.190989 -1.114833
6.194963 -1.205360
6.198961 -1.066885
6.202961 -0.581766
6.206986  0.235334
6.210974  1.180179
6.214980  1.928421
6.218987  2.215453
6.222981  1.979385
6.226989  1.350774
6.230991  0.538355
6.234989 -0.269349
6.238982 -0.939582
6.242992 -1.396690
6.246991 -1.621581
6.250982 -1.650665
6.254993 -1.559525
6.259680 -1.429084
6.262986 -1.313052
6.266980 -1.227433
6.270981 -1.163476
6.274980 -1.107938
6.278987 -1.054665
6.282979 -1.004339
6.286988 -0.958806
6.290982 -0.916061
6.294980 -0.869764
6.298981 -0.814880
6.302979 -0.754326
6.306981 -0.698793
6.310989 -0.659125
6.314982 -0.638306
6.318990 -0.630079
6.322982 -0.624764
6.326964 -0.616667
6.331036 -0.606843
6.335023 -0.599480
6.338990 -0.595810
6.342989 -0.591684
6.346982 -0.581753
6.350983 -0.566757
6.354990 -0.555790
6.358982 -0.559517
6.362989 -0.581383
6.366982 -0.615752
6.370982 -0.652212
6.374981 -0.681166
6.378992 -0.699376
6.382983 -0.712777
6.386985 -0.732049
6.390983 -0.763477
6.394986 -0.804740
6.398991 -0.850155
6.402985 -0.898404
6.406985 -0.953736
6.410985 -1.020901
6.414984 -1.100708
6.418992 -1.191081
6.422983 -1.291796
6.426984 -1.405446
6.430994 -1.531651
6.434978 -1.661986
6.439050 -1.783153
6.442987 -1.885964
6.446989 -1.971078
6.450983 -2.045450
6.454981 -2.112677
6.458990 -2.166945
6.462981 -2.196661
6.467113 -2.193900
6.470986 -2.159606
6.474984 -2.098740
6.479290 -2.011484
6.482987 -1.892913
6.487043 -1.742902
6.490990 -1.572109
6.494998 -1.394404
6.499108 -1.216460
6.503032 -1.038324
6.506987 -0.860491
6.511205 -0.684494
6.514981 -0.508145
6.518982 -0.327162
6.522989 -0.143662
6.526990  0.030465
6.531098  0.180488
6.534981  0.298488
6.538982  0.386869
6.542973  0.454209
6.546988  0.508926
6.550977  0.557314
6.554986  0.605761
6.558991  0.660867
6.562992  0.724759
6.567003  0.791112
6.570987  0.848127
6.574993  0.887461
6.578992  0.911411
6.582983  0.930867
6.586986  0.955045
6.590983  0.983379
6.594993  1.008022
6.598983  1.023042
6.602984  1.029559
6.606985  1.032736
6.610985  1.035764
6.614991  1.037125
6.618991  1.032609
6.622984  1.019250
6.626992  0.998000
6.630991  0.973721
6.634997  0.952462
6.638978  0.938301
6.643266  0.932350
6.646987  0.933156
6.650977  0.937223
6.655157  0.940578
6.658987  0.940774
6.663116  0.936951
6.666985  0.928069
6.670996  0.912205
6.674987  0.888961
6.679118  0.862458
6.682984  0.839786
6.686984  0.825212
6.690992  0.816698
6.694984  0.807980
6.698984  0.793397
6.702984  0.772308
6.706984  0.750250
6.710991  0.734216
6.714984  0.725659
6.718984  0.719640
6.722984  0.711235
6.726984  0.700875
6.730992  0.692683
6.734985  0.688792
6.739067  0.685953
6.742984  0.677701
6.746981  0.660614
6.750990  0.638771
6.754981  0.620691
6.758983  0.611366
6.762981  0.608524
6.766990  0.606402
6.771051  0.601498
6.774983  0.595170
6.778981  0.592369
6.782989  0.596766
6.786990  0.604060
6.790983  0.600420
6.794976  0.573574
6.798984  0.530541
6.802987  0.499556
6.806990  0.505004
6.810981  0.541406
6.814982  0.579478
6.818981  0.596007
6.822992  0.591701
6.826981  0.581473
6.830984  0.573597
6.834981  0.562163
6.838983  0.537976
6.843069  0.501762
6.846989  0.466088
6.850983  0.447326
6.854989  0.456160
6.858982  0.495561
6.862989  0.565760
6.866982  0.664793
6.870983  0.782958
6.874990  0.904209
6.878982  1.017889
6.882989  1.125872
6.886982  1.233409
6.890982  1.333758
6.894982  1.407175
6.898983  1.437157
6.902989  1.423825
6.906982  1.379144
6.910994  1.314016
6.914986  1.234239
6.918986  1.143787
6.922985  1.044924
6.926984  0.937044
6.930991  0.821421
6.934984  0.707370
6.938986  0.609473
6.943090  0.536525
6.946978  0.484297
6.951082  0.440066
6.955066  0.393516
6.958984  0.344099
6.962983  0.300161
6.966984  0.271126
6.970996  0.259443
6.974986  0.259590
6.978983  0.263515
6.982985  0.265789
6.986983  0.264111
6.990992  0.255130
6.994985  0.228293
6.998984  0.164867
7.002983  0.050143
7.006985 -0.108504
7.010991 -0.283873
7.014985 -0.458725
7.018985 -0.640721
7.022985 -0.820816
7.026983 -0.911051
7.030986 -0.748701
7.034991 -0.195751
7.038985  0.733028
7.042983  1.812675
7.046986  2.685327
7.050991  3.047665
7.054992  2.814864
7.058984  2.129001
7.062994  1.233494
7.066986  0.348568
7.070984 -0.376473
7.074991 -0.863943
7.078986 -1.103735
7.083035 -1.144673
7.086983 -1.069754
7.090976 -0.961368
7.095243 -0.872214
7.098983 -0.814885
7.102988 -0.774153
7.107038 -0.732122
7.111020 -0.686335
7.114991 -0.646996
7.118984 -0.620383
7.122984 -0.599360
7.126984 -0.571460
7.130984 -0.533582
7.134993 -0.495930
7.138984 -0.472046
7.142984 -0.466557
7.146996 -0.471053
7.150976 -0.469386
7.155177 -0.448875
7.158983 -0.410575
7.162976 -0.369584
7.166984 -0.344740
7.170982 -0.347480
7.175122 -0.376408
7.178980 -0.418465
7.182961 -0.457409
7.186972 -0.483899
7.191240 -0.497329
7.194982 -0.500556
7.198982 -0.496792
7.202982 -0.490976
7.206982 -0.490893
7.210989 -0.504594
7.214982 -0.535269
7.218982 -0.578724
7.222982 -0.627519
7.226982 -0.677461
7.230990 -0.728875
7.234982 -0.783978
7.238982 -0.847350
7.242982 -0.927859
7.246982 -1.032784
7.250997 -1.155576
7.254995 -1.275373
7.258990 -1.376003
7.262986 -1.461624
7.266991 -1.548401
7.270986 -1.645821
7.274991 -1.749545
7.278994 -1.847123
7.283045 -1.927213
7.286985 -1.986003
7.290985 -2.028587
7.294992 -2.064187
7.298983 -2.095732
7.302985 -2.111909
7.306983 -2.093131
7.310985 -2.028200
7.314992 -1.922616
7.318984 -1.789603
7.323191 -1.638566
7.326987 -1.475110
7.330985 -1.304605
7.335115 -1.129716
7.338988 -0.949764
7.342983 -0.766415
7.346982 -0.585879
7.350989 -0.414320
7.354982 -0.254444
7.358982 -0.106629
7.362982  0.029395
7.366981  0.154289
7.370990  0.267989
7.374982  0.367210
7.379192  0.444487
7.382987  0.491972
7.386989  0.509309
7.390986  0.507863
7.394987  0.505495
7.398981  0.518708
7.403071  0.558364
7.406989  0.624232
7.411193  0.699371
7.415044  0.755057
7.419147  0.767911
7.423252  0.736498
7.426991  0.682640
7.430986  0.635260
7.434992  0.611173
7.438984  0.609254
7.442992  0.619034
7.446993  0.631570
7.450984  0.642914
7.455107  0.651716
7.458996  0.658133
7.462994  0.664607
7.466985  0.673524
7.470979  0.684204
7.474983  0.694796
7.478994  0.703895
7.482995  0.705808
7.486984  0.687416
7.490993  0.638401
7.494996  0.569336
7.498992  0.512761
7.502984  0.495907
7.506985  0.513970
7.510983  0.535876
7.514985  0.531978
7.518993  0.494310
7.522985  0.438897
7.526983  0.394065
7.530986  0.382434
7.534985  0.407076
7.538992  0.449844
7.542983  0.482406
7.546985  0.483266
7.550984  0.450721
7.554985  0.403397
7.558991  0.365865
7.562985  0.348186
7.566991  0.337509
7.570992  0.311583
7.575030  0.262761
7.578994  0.208795
7.582982  0.177940
7.586976  0.181569
7.590990  0.199606
7.594982  0.191100
7.598994  0.123109
7.603108  0.000422
7.606992 -0.125203
7.610972 -0.184923
7.614984 -0.149330
7.618970 -0.053486
7.622984  0.041544
7.626981  0.100119
7.630983  0.121325
7.634983  0.118661
7.638996  0.106203
7.642986  0.096502
7.646984  0.095480
7.650992  0.094779
7.655021  0.077547
7.658992  0.037285
7.663345 -0.012394
7.667110 -0.050122
7.670985 -0.067551
7.674981 -0.074360
7.679300 -0.082136
7.682985 -0.090059
7.687123 -0.091867
7.691044 -0.089980
7.695092 -0.094000
7.698968 -0.108233
7.702981 -0.126342
7.707057 -0.136767
7.710982 -0.131136
7.714986 -0.109714
7.718985 -0.080489
7.722991 -0.051046
7.726985 -0.020414
7.730983  0.018599
7.734996  0.069132
7.738985  0.126863
7.742983  0.187559
7.746990  0.251443
7.750981  0.316192
7.754982  0.370909
7.758981  0.402163
7.762996  0.403106
7.766986  0.373622
7.770994  0.316067
7.774984  0.235898
7.778984  0.143332
7.782982  0.048704
7.786989 -0.043926
7.790992 -0.032147
7.795214 -0.114637
7.798983 -0.179858
7.802982 -0.222613
7.806990 -0.249922
7.810982 -0.272313
7.814989 -0.297982
7.819041 -0.332747
7.823311 -0.377824
7.826981 -0.425487
7.830990 -0.462856
7.834982 -0.481194
7.838983 -0.478089
7.842981 -0.454624
7.846983 -0.417721
7.850989 -0.384468
7.854983 -0.378776
7.858983 -0.420201
7.863118 -0.510790
7.866988 -0.628702
7.870983 -0.742879
7.874982 -0.846846
7.878990 -0.971788
7.882984 -1.141260
7.886986 -1.298776
7.890986 -1.293291
7.894995 -0.962740
7.898992 -0.261610
7.902992  0.662312
7.906983  1.509136
7.910978  1.980140
7.914983  1.940263
7.918998  1.462798
7.922986  0.740438
7.926984 -0.034511
7.930992 -0.729679
7.934984 -1.269757
7.938984 -1.617310
7.942984 -1.767129
7.946984 -1.749072
7.950991 -1.622247
7.954984 -1.456374
7.958984 -1.309388
7.962984 -1.210397
7.967048 -1.153244
7.970985 -1.107157
7.975092 -1.044519
7.978990 -0.963857
7.983035 -0.882818
7.986990 -0.812707
7.990985 -0.750541
7.995044 -0.693229
7.998989 -0.644227
8.003040 -0.602742
8.006990 -0.558819
8.011296 -0.504733
8.014978 -0.444438
8.018983 -0.390579
8.022983 -0.357398
8.026989 -0.354207
8.030982 -0.379001
8.034982 -0.417204
8.038981 -0.449665
8.042982 -0.464553
8.046990 -0.463318
8.050982 -0.457061
8.055029 -0.457875
8.059100 -0.471553
8.062990 -0.495865
8.066982 -0.525452
8.071026 -0.558240
8.074992 -0.595359
8.078983 -0.635607
8.082982 -0.674074
8.086983 -0.707483
8.090990 -0.738988
8.094981 -0.777388
8.098990 -0.830820
8.102982 -0.898638
8.106982 -0.970361
8.110989 -1.035632
8.114982 -1.094001
8.118982 -1.153397
8.122982 -1.222853
8.126982 -1.309095
8.130989 -1.414606
8.134989 -1.533040
8.138990 -1.648139
8.142982 -1.742590
8.146982 -1.810506
8.150990 -1.859759
8.154982 -1.900852
8.158982 -1.935486
8.162982 -1.956362
8.166982 -1.953341
8.170994 -1.916085
8.174992 -1.833494
8.178989 -1.696694
8.182990 -1.507022
8.186975 -1.281571
8.190983 -1.048945
8.194975 -0.836211
8.199121 -0.654544
8.202989 -0.493543
8.206991 -0.330353
8.210990 -0.147884
8.214986  0.051578
8.219032  0.247070
8.222975  0.413457
8.226989  0.538959
8.230976  0.631609
8.234982  0.710228
8.238977  0.789806
8.242982  0.874349
8.246989  0.960117
8.250982  1.041741
8.254983  1.114867
8.258983  1.177042
8.262983  1.229572
8.266990  1.277043
8.270982  1.322024
8.274996  1.360731
8.278993  1.385365
8.283144  1.390478
8.286992  1.378643
8.290996  1.362306
8.294966  1.356711
8.298985  1.365781
8.302994  1.378309
8.306994  1.383133
8.311082  1.382137
8.314983  1.382213
8.318982  1.381971
8.322989  1.374744
8.326982  1.360271
8.330982  1.346065
8.334982  1.338772
8.338983  1.340051
8.342989  1.350268
8.346980  1.369526
8.351125  1.393756
8.354992  1.414619
8.358981  1.424580
8.362982  1.420072
8.366981  1.401069
8.370983  1.371159
8.375055  1.337789
8.378992  1.308169
8.382991  1.283094
8.386982  1.257326
8.390982  1.227255
8.394990  1.195986
8.398982  1.169977
8.402982  1.153739
8.406991  1.148749
8.410993  1.151269
8.414987  1.148279
8.418978  1.124894
8.422991  1.082540
8.426984  1.043817
8.430986  1.034529
8.434984  1.062343
8.438984  1.111574
8.442991  1.154986
8.446984  1.170628
8.450984  1.151714
8.455040  1.106884
8.458994  1.054331
8.462991  1.012431
8.466985  0.990721
8.470983  0.987244
8.474985  0.993400
8.478996  1.000770
8.482986  1.004448
8.487077  1.002562
8.490980  0.995330
8.494978  0.986283
8.498990  0.983642
8.502982  0.996210
8.506990  1.023424
8.510982  1.050765
8.514982  1.060439
8.518989  1.047818
8.522982  1.024171
8.526982  1.003527
8.530982  0.990469
8.535049  0.980775
8.539151  0.970025
8.543051  0.958733
8.546982  0.949241
8.550982  0.939688
8.554990  0.923457
8.558982  0.895699
8.562982  0.859203
8.566982  0.822154
8.570982  0.791538
8.574989  0.771136
8.579199  0.762778
8.582987  0.763972
8.586988  0.766707
8.591013  0.764787
8.594988  0.760141
8.598984  0.756847
8.603042  0.753186
8.607087  0.746183
8.610991  0.741753
8.614992  0.754453
8.619134  0.795036
8.622981  0.859306
8.626983  0.931703
8.630982  1.000572
8.634990  1.066693
8.638981  1.134719
8.642983  1.199975
8.646981  1.247806
8.650982  1.264355
8.654989  1.245278
8.658984  1.195833
8.662981  1.125899
8.666985  1.044518
8.670982  0.956543
8.674992  0.863527
8.678981  0.767909
8.682990  0.674903
8.686990  0.588853
8.691194  0.509825
8.694990  0.437238
8.699094  0.376195
8.702992  0.334895
8.706982  0.312055
8.711111  0.289946
8.714989  0.245907
8.719084  0.173036
8.722977  0.087902
8.727074  0.016690
8.730982 -0.025416
8.734976 -0.042316
8.738982 -0.049752
8.742976 -0.063974
8.746989 -0.096995
8.750981 -0.158691
8.754982 -0.255104
8.758982 -0.378633
8.762984 -0.508695
8.766989 -0.636453
8.770982 -0.780062
8.775022 -0.945076
8.778989 -1.058153
8.782976 -0.963694
8.786996 -0.519614
8.790986  0.274810
8.794994  1.221739
8.798984  1.998101
8.802984  2.328872
8.806986  2.133543
8.810991  1.529748
8.814992  0.719867
8.819704 -0.115862
8.822983 -0.852374
8.826979 -1.409805
8.830985 -1.749739
8.834982 -1.882779
8.838987 -1.862820
8.842984 -1.759858
8.846987 -1.630830
8.850982 -1.506586
8.855093 -1.394833
8.859060 -1.291533
8.862982 -1.192530
8.866989 -1.098063
8.870983 -1.012098
8.874982 -0.942503
8.878982 -0.899189
8.882991 -0.886736
8.887112 -0.898750
8.890985 -0.920107
8.894964 -0.934836
8.899068 -0.935534
8.903022 -0.927085
8.907024 -0.920117
8.910985 -0.922810
8.914986 -0.938452
8.918990 -0.963425
8.923023 -0.984451
8.926989 -0.986104
8.930989 -0.968825
8.934978 -0.954536
8.938984 -0.966726
8.942989 -1.008512
8.947112 -1.064708
8.950990 -1.118281
8.955144 -1.157919
8.959012 -1.176949
8.963022 -1.176340
8.967333 -1.168968
8.970984 -1.175172
8.974991 -1.211683
8.978984 -1.282939
8.982984 -1.380273
8.986984 -1.488013
8.990996 -1.590743
8.994986 -1.678462
8.998993 -1.750512
9.002978 -1.816372
9.006977 -1.890483
9.010990 -1.984464
9.015022 -2.101751
9.019225 -2.235995
9.022988 -2.373425
9.026984 -2.498734
9.030985 -2.601047
9.034987 -2.676121
9.038988 -2.725087
9.042984 -2.752751
9.046984 -2.766647
9.050984 -2.775995
9.054988 -2.788727
9.058988 -2.804783
9.063103 -2.809465
9.066990 -2.776891
9.070984 -2.686804
9.074987 -2.542371
9.078988 -2.371760
9.082987 -2.209160
9.086992 -2.069427
9.090983 -1.937941
9.095034 -1.786324
9.098988 -1.600986
9.102972 -1.396397
9.106982 -1.201303
9.110989 -1.036507
9.114982 -0.905868
9.118982 -0.800955
9.122982 -0.708515
9.126989 -0.616321
9.130982 -0.519690
9.134982 -0.426727
9.138982 -0.354362
9.142982 -0.314299
9.146992 -0.301525
9.150982 -0.297958
9.154984 -0.287914
9.158982 -0.269637
9.162982 -0.252438
9.166990 -0.244908
9.170982 -0.246857
9.174989 -0.249751
9.178992 -0.242784
9.182972 -0.222143
9.187063 -0.198461
9.190969 -0.192295
9.194976 -0.215622
9.199127 -0.256116
9.202990 -0.285167
9.206986 -0.285967
9.210984 -0.269911
9.214984 -0.261095
9.218991 -0.269580
9.223121 -0.285460
9.226981 -0.296001
9.230985 -0.301954
9.234982 -0.315114
9.238990 -0.343204
9.242981 -0.380610
9.246984 -0.414029
9.250982 -0.435093
9.255060 -0.446731
9.259042 -0.459407
9.263206 -0.482561
9.266982 -0.517407
9.270982 -0.555701
9.274980 -0.586455
9.278981 -0.605491
9.282990 -0.618550
9.286981 -0.635155
9.290985 -0.659682
9.294981 -0.687584
9.299192 -0.710052
9.302984 -0.723234
9.306996 -0.732415
9.310986 -0.746006
9.314984 -0.766622
9.318984 -0.790015
9.322991 -0.811946
9.326991 -0.833145
9.331044 -0.857014
9.334996 -0.885121
9.338998 -0.915497
9.343273 -0.942705
9.346988 -0.960060
9.350976 -0.964644
9.354982 -0.958659
9.358982 -0.943886
9.362990 -0.918946
9.366982 -0.886096
9.370982 -0.857231
9.374982 -0.846473
9.378982 -0.854966
9.382990 -0.866682
9.386982 -0.863048
9.390982 -0.841265
9.394982 -0.815759
9.398982 -0.803260
9.402989 -0.809903
9.406982 -0.830351
9.410982 -0.853921
9.414994 -0.871089
9.418985 -0.877116
9.422979 -0.871503
9.426990 -0.856556
9.430982 -0.838132
9.434990 -0.824481
9.438982 -0.819980
9.442984 -0.820979
9.446992 -0.820529
9.450982 -0.815636
9.454982 -0.807828
9.458983 -0.798752
9.462984 -0.788563
9.466990 -0.778789
9.470982 -0.773736
9.474983 -0.776517
9.478994 -0.784713
9.482992 -0.792337
9.486989 -0.795856
9.490986 -0.795805
9.494962 -0.790910
9.498986 -0.773610
9.502988 -0.737055
9.506987 -0.686286
9.510964 -0.635930
9.514983 -0.594285
9.518989 -0.553548
9.522982 -0.497651
9.526982 -0.416885
9.530989 -0.313439
9.534982 -0.195633
9.538991 -0.069607
9.542982  0.062828
9.546982  0.197647
9.550982  0.321200
9.554982  0.414499
9.558990  0.468153
9.562982  0.489751
9.566983  0.493327
9.570982  0.485652
9.575129  0.466662
9.578991  0.438460
9.582981  0.408281
9.586989  0.382172
9.590982  0.356356
9.594982  0.317852
9.598982  0.258387
9.602982  0.187082
9.606989  0.125541
9.610983  0.089659
9.614982  0.076265
9.618990  0.065741
9.622976  0.038204
9.626982 -0.008637
9.630982 -0.054445
9.634993 -0.068694
9.638987 -0.029626
9.642991  0.064001
9.646985  0.191902
9.650991  0.318177
9.654992  0.400983
9.658991  0.407555
9.662979  0.334297
9.666984  0.213250
9.670992  0.082089
9.674991 -0.057719
9.678992 -0.227903
9.682985 -0.395210
9.686984 -0.418219
9.690983 -0.103567
9.694985  0.656093
9.698991  1.766016
9.702985  2.923478
9.706991  3.749392
9.710984  3.989346
9.715084  3.635864
9.718977  2.884614
9.722982  1.999038
9.726990  1.207217
9.730982  0.659158
9.735163  0.407243
9.738992  0.403320
9.743196  0.534853
9.746977  0.690799
9.751175  0.810412
9.754986  0.885385
9.758985  0.933259
9.762992  0.975240
9.766983  1.027926
9.770984  1.101898
9.774984  1.205222
9.778996  1.348132
9.782988  1.536939
9.787046  1.759325
 9.791256  0.016811
 9.794990  0.119849
 9.798974  0.211442
 9.802987  0.287004
 9.807187  0.345582
 9.811213  0.386451
 9.815105  0.412637
 9.818992  0.426282
 9.822977  0.412097
 9.826992  0.338199
 9.830984  0.188782
 9.834984 -0.005284
 9.839142 -0.174918
 9.843059 -0.254033
 9.846990 -0.219221
 9.850991 -0.102892
 9.855102  0.024844
 9.859028  0.096884
 9.862982  0.088058
 9.866989  0.020244
 9.870984 -0.067751
 9.874982 -0.148452
 9.878982 -0.209055
 9.882982 -0.245540
 9.886982 -0.262456
 9.890990 -0.270449
 9.894989 -0.275093
 9.898991 -0.268948
 9.902984 -0.240422
 9.906978 -0.193112
 9.910984 -0.155961
 9.914992 -0.171623
 9.918984 -0.266903
 9.922984 -0.429361
 9.926984 -0.616634
 9.930984 -0.790663
 9.934991 -0.939549
 9.938984 -1.068952
 9.942990 -1.182581
 9.946982 -1.276998
 9.950982 -1.349349
 9.954989 -1.398363
 9.958982 -1.414812
 9.962982 -1.380906
 9.966982 -1.287873
 9.970982 -1.151174
 9.975022 -1.002299
 9.978989 -0.866797
 9.982982 -0.753323
 9.986982 -0.659433
 9.990982 -0.580569
 9.994989 -0.513241
 9.998983 -0.453400
10.002981 -0.393017
10.006982 -0.319171
10.010982 -0.218849
10.014993 -0.085654
10.018988  0.077617
10.022991  0.260190
10.026986  0.445619
10.030982  0.616480
10.034983  0.761507
10.038981  0.878484
10.042986  0.966445
10.046996  1.013343
10.050992  0.996828
10.054991  0.904765
10.059023  0.755866
10.062994  0.595435
10.066986  0.467717
10.070983  0.391995
10.074984  0.364283
10.078996  0.378060
10.082983  0.435512
10.087095  0.532698
10.090994  0.643013
10.094967  0.731019
10.098990  0.780299
10.103105  0.796484
10.107037  0.787296
10.111152  0.750825
10.114984  0.682522
10.118992  0.586335
10.122984  0.477717
10.126996  0.378102
10.130986  0.304142
10.135023  0.256300
10.138986  0.218034
10.142986  0.175951
10.146992  0.144786
10.150984  0.160710
10.154992  0.238641
10.158984  0.339849
10.162984  0.393734
10.166965  0.358275
10.171100  0.256275
10.174991  0.150539
10.179324  0.089115
10.182990  0.076391
10.186982  0.087865
10.190982  0.100825
10.194981  0.106514
10.198982  0.099264
10.202989  0.066392
10.206982 -0.001303
10.210982 -0.088590
10.214994 -0.154670
10.218986 -0.161952
10.222982 -0.106500
10.227103 -0.021118
10.230988  0.046586
10.234982  0.063738
10.238982  0.032113
10.242985 -0.017892
10.247119 -0.057245
10.250982 -0.082006
10.254996 -0.105861
10.258986 -0.136133
10.262984 -0.165202
10.266984 -0.183304
10.270984 -0.192682
10.274992 -0.206705
10.278984 -0.235574
10.282984 -0.272524
10.286984 -0.294301
10.290984 -0.277553
10.294996 -0.218362
10.298986 -0.136976
10.302984 -0.060925
10.306985 -0.004814
10.310984  0.028331
10.314992  0.031853
10.318984 -0.003192
10.322991 -0.070304
10.327079 -0.145749
10.330990 -0.210179
10.334986 -0.262735
10.338981 -0.309996
10.342982 -0.349617
10.346981 -0.370835
10.350986 -0.367506
10.355227 -0.345744
10.358982 -0.319594
10.362982 -0.302918
10.366982 -0.304564
10.370983 -0.325099
10.374989 -0.354308
10.379037 -0.375335
10.382983 -0.375828
10.386987 -0.353684
10.391036 -0.310902
10.394988 -0.247536
10.398981 -0.165573
10.402987 -0.073758
10.406970  0.017107
10.411199  0.100499
10.414982  0.171295
10.418989  0.223103
10.422982  0.256543
10.426982  0.285638
10.430982  0.328387
10.434981  0.390403
10.438990  0.458099
10.442982  0.506886
10.446983  0.517569
10.450982  0.487764
10.454996  0.429444
10.458988  0.356832
10.462986  0.277267
10.466994  0.192373
10.470984  0.105949
10.474984  0.029308
10.478984 -0.023959
10.482984 -0.052244
10.486991 -0.074035
10.490984 -0.116482
10.494983 -0.192690
10.498984 -0.289438
10.502984 -0.374158
10.506992 -0.413130
10.510984 -0.392071
10.514985 -0.330143
10.518984 -0.272831
10.522984 -0.261996
10.527156 -0.309230
10.530991 -0.399223
10.535032 -0.513714
10.538991 -0.643167
10.542982 -0.777597
10.546982 -0.903588
10.550989 -1.022527
10.554982 -1.156459
10.558989 -1.303954
10.562982 -1.379109
10.566982 -1.216989
10.570989 -0.674706
10.574982  0.237489
10.578982  1.297347
10.582982  2.150587
10.586982  2.498939
10.590989  2.258222
10.594982  1.563882
10.599155  0.651071
10.602982 -0.265970
10.606982 -1.042458
10.610990 -1.599214
10.615102 -1.911231
10.618992 -2.001596
10.622990 -1.926651
10.626982 -1.749570
10.630982 -1.521794
10.634982 -1.283498
10.638996 -1.068318
10.642986 -0.897110
10.646984 -0.770433
10.650984 -0.677409
10.654991 -0.614295
10.658992 -0.587843
10.662984 -0.598497
10.666986 -0.628013
10.670984 -0.649050
10.674992 -0.644125
10.678986 -0.613135
10.683070 -0.564940
10.686991 -0.504147
10.690966 -0.427992
10.694964 -0.336763
10.699009 -0.243785
10.702990 -0.171714
10.706991 -0.139121
10.711273 -0.148916
10.714977 -0.186366
10.718983 -0.229851
10.722982 -0.266476
10.726988 -0.296509
10.730989 -0.324681
10.734984 -0.353514
10.738984 -0.385567
10.742985 -0.424537
10.746977 -0.468963
10.750982 -0.506439
10.754982 -0.517014
10.759118 -0.486399
10.762982 -0.423675
10.766982 -0.369213
10.770982 -0.375764
10.775042 -0.469938
10.778983 -0.630567
10.782959 -0.806838
10.786993 -0.955855
10.790982 -1.065145
10.794982 -1.148150
10.798982 -1.224180
10.802991 -1.302228
10.806982 -1.380054
10.810982 -1.452801
10.814982 -1.518993
10.818982 -1.580708
10.822990 -1.641840
10.826982 -1.706177
10.830983 -1.773141
10.834963 -1.831882
10.839285 -1.863045
10.842990 -1.853136
10.846964 -1.805532
10.850983 -1.732593
10.855096 -1.640048
10.858991 -1.521389
10.862976 -1.363669
10.867299 -1.159525
10.870988 -0.919346
10.874984 -0.672044
10.878982 -0.449029
10.882982 -0.265556
10.886984 -0.118541
10.890987  0.000830
10.894982  0.098430
10.898984  0.180506
10.902982  0.258207
10.906984  0.342959
10.910988  0.436920
10.914982  0.531330
10.918982  0.618490
10.922982  0.706089
10.926984  0.815391
10.930987  0.959798
10.935017  1.122067
10.938983  1.254146
10.942972  1.306780
10.946983  1.267048
10.950989  1.168702
10.954983  1.065648
10.958981  0.995499
10.962983  0.963038
10.966988  0.949617
10.970990  0.935967
10.975195  0.919138
10.978987  0.911245
10.982988  0.925230
10.987037  0.961315
10.990988  1.004002
10.994983  1.032727
10.998974  1.037913
11.002986  1.026439
11.006986  1.012021
11.010983  1.003571
11.014993  1.002173
11.018991  1.003718
11.022984  1.004612
11.026984  1.009891
11.030996  1.030893
11.034988  1.065336
11.038988  1.086902
11.042983  1.069379
11.046980  1.016638
11.050970  0.956482
11.055240  0.910256
11.058990  0.878885
11.062976  0.853660
11.066990  0.829813
11.070981  0.809157
11.074990  0.795949
11.078981  0.793122
11.082983  0.800997
11.086981  0.817926
11.090983  0.841295
11.094994  0.867611
11.099111  0.893093
11.102982  0.916748
11.106982  0.941921
11.110983  0.970897
11.114990  0.997975
11.118982  1.010829
11.122983  0.999171
11.126981  0.962228
11.130982  0.909743
11.134990  0.856333
11.138982  0.813830
11.142981  0.787903
11.146982  0.779940
11.150994  0.789637
11.154986  0.814554
11.158984  0.847155
11.162984  0.874820
11.166991  0.888544
11.170992  0.895544
11.175023  0.920416
11.178998  0.986198
11.182974  1.087929
11.186984  1.185510
11.190984  1.229684
11.194992  1.200986
11.198984  1.125203
11.203198  1.053472
11.206987  1.029565
11.210982  1.070226
11.214982  1.164964
11.218982  1.288910
11.222985  1.418233
11.226986  1.536371
11.230981  1.629173
11.234983  1.682270
11.238982  1.689723
11.242990  1.661767
11.246990  1.617653
11.251039  1.570999
11.254991  1.521779
11.259110  1.456502
11.262992  1.355782
11.266984  1.210448
11.271113  1.035248
11.274991  0.864896
11.278996  0.734470
11.282987  0.658915
11.286990  0.623174
11.290992  0.589879
11.294963  0.525866
11.298990  0.432041
11.302966  0.346486
11.307178  0.310395
11.310989  0.330841
11.314982  0.380878
11.318982  0.431099
11.322982  0.472444
11.326991  0.507026
11.330982  0.522835
11.334994  0.487147
11.338992  0.372629
11.342973  0.186191
11.346989 -0.040760
11.350983 -0.288077
11.354991 -0.545605
11.359037 -0.757076
11.362981 -0.781758
11.366990 -0.448947
11.370981  0.311849
11.374990  1.363713
11.379919  2.382799
11.382984  3.023546
11.386991  3.107060
11.390985  2.679176
11.394983  1.924225
11.398985  1.049093
11.402983  0.223825
11.406992 -0.429653
11.410983 -0.842639
11.415030 -1.010056
11.418991 -0.987545
11.422978 -0.863935
11.426984 -0.722613
11.430992 -0.614143
11.434983 -0.552410
11.438985 -0.530154
11.442982 -0.535124
11.446968 -0.551009
11.450993 -0.552840
11.454992 -0.517228
11.459187 -0.441789
11.462979 -0.349815
11.466984 -0.273691
11.470982 -0.232140
11.474990 -0.219169
11.478988 -0.211864
11.482982 -0.188846
11.486981 -0.142871
11.490982 -0.078425
11.494989 -0.003462
11.498985  0.069798
11.502982  0.119342
11.506982  0.119227
11.510984  0.056896
11.514989 -0.053345
11.518982 -0.173548
11.522982 -0.262995
11.526982 -0.302253
11.530982 -0.300904
11.534989 -0.284065
11.538982 -0.271933
11.542982 -0.270644
11.546982 -0.278960
11.550995 -0.299107
11.554972 -0.338292
11.558994 -0.399607
11.562988 -0.473732
11.566984 -0.545146
11.570991 -0.611725
11.575032 -0.692917
11.578987 -0.808552
11.582965 -0.953374
11.586982 -1.102450
11.591059 -1.238090
11.594990 -1.362268
11.598983 -1.483247
11.602969 -1.597402
11.607102 -1.689986
11.610980 -1.753896
11.614983 -1.802140
11.618989 -1.856893
11.622982 -1.926599
11.626984 -1.995458
11.630982 -2.035014
11.634982 -2.027332
11.638990 -1.980082
11.642982 -1.918651
11.646982 -1.861596
11.650982 -1.805477
11.655023 -1.733873
11.658992 -1.635334
11.662989 -1.509538
11.666983 -1.362475
11.670981 -1.202319
11.674983 -1.037302
11.678989 -0.871370
11.682990 -0.701670
11.686981 -0.523730
11.690982 -0.340168
11.694981 -0.164183
11.698990 -0.014762
11.702981  0.093260
11.706983  0.157802
11.710981  0.190920
11.714983  0.213173
11.718991  0.245269
11.722982  0.299605
11.726981  0.373726
11.731159  0.450147
11.735029  0.505829
11.738992  0.526889
11.742989  0.516368
11.746982  0.488073
11.750981  0.454891
11.754995  0.424428
11.758973  0.401641
11.762992  0.387484
11.766992  0.373100
11.770982  0.343829
11.774982  0.294501
11.778982  0.235732
11.783118  0.181807
11.786989  0.136068
