3.774488  0.478813
3.778477  0.701685
3.782453  1.078450
3.866674  1.577485
3.871155  2.014027
3.873472  2.239654
3.875672  2.256381
3.877507  2.166146
3.879286  2.065438
3.881975  1.995050
3.884146  1.951321
3.886337  1.915929
3.888666  1.875337
3.890837  1.826491
3.892984  1.774284
3.895137  1.724859
3.897109  1.679465
3.898934  1.633963
3.901090  1.583818
3.903336  1.528172
3.906459  1.468165
3.910463  1.402801
3.914467  1.329162
3.918463  1.248047
3.922465  1.167932
3.926462  1.100037
3.930468  1.048265
3.934781  1.005737
3.938473  0.959656
3.942472  0.893716
3.946473  0.786500
3.950474  0.618844
3.954613  0.393403
3.958473  0.152589
3.962470 -0.014852
3.966463  0.019798
3.970471  0.396348
3.974464  1.202557
3.978471  2.389869
3.982605  3.719888
3.986477  4.810607
3.990466  5.302964
3.994532  5.056115
3.998470  4.216094
4.002476  3.100564
4.006472  2.011129
4.010473  1.122407
4.014471  0.486526
4.018448  0.089734
4.022449 -0.105463
4.026465 -0.147946
4.030599 -0.095875
4.034473 -0.007256
4.038474  0.075469
4.042478  0.134561
4.046467  0.173396
4.050473  0.204792
4.054469  0.240506
4.058465  0.288334
4.063076  0.354448
4.066475  0.440767
4.070464  0.534799
4.074463  0.607433
4.078472  0.632254
4.082451  0.611707
4.086471  0.578468
4.090458  0.565740
4.094464  0.579846
4.098472  0.604732
4.102469  0.625392
4.106464  0.640257
4.110463  0.655735
4.114472  0.675847
4.118471  0.698655
4.122731  0.721512
4.126473  0.746601
4.130466  0.778613
4.134473  0.819667
4.138763  0.869288
4.142477  0.925808
4.146507  0.984164
4.150465  1.034806
4.154471  1.069069
4.158464  1.086262
4.162469  1.093845
4.166464  1.100243
4.170463  1.108114
4.174472  1.114712
4.178463  1.118069
4.182470  1.121567
4.186463  1.131331
4.190478  1.149537
4.194468  1.171725
4.198466  1.190450
4.202473  1.199326
4.206473  1.193213
4.210466  1.168712
4.218553  1.128946
4.222473  1.086340
4.226529  1.054643
4.230471  1.034882
4.234464  1.011681
4.238472  0.967487
4.242477  0.900515
4.246471  0.825377
4.250472  0.755755
4.254476  0.690237
4.258468  0.616814
4.262471  0.528272
4.266466  0.430022
4.270467  0.333211
4.274474  0.242461
4.278465  0.151331
4.282472  0.049176
4.286466 -0.067930
4.290466 -0.192103
4.294474 -0.307418
4.298467 -0.397980
4.302477 -0.454110
4.306447 -0.474395
4.310471 -0.466298
4.314465 -0.445560
4.318456 -0.429224
4.322451 -0.424222
4.326981 -0.424613
4.330464 -0.421557
4.334475 -0.412195
4.338471 -0.397376
4.342471 -0.376668
4.346473 -0.351842
4.350466 -0.334305
4.354466 -0.341437
4.358639 -0.378832
4.362470 -0.427822
4.366471 -0.458492
4.370464 -0.459105
4.374577 -0.449418
4.378471 -0.462009
4.382469 -0.511666
4.386462 -0.582674
4.390446 -0.642263
4.394766 -0.666038
4.398505 -0.654787
4.402449 -0.629482
4.406442 -0.610326
4.410456 -0.601018
4.414478 -0.590818
4.418477 -0.568352
4.422570 -0.533768
4.426473 -0.500347
4.430460 -0.486798
4.434466 -0.505371
4.438460 -0.550472
4.442481 -0.598354
4.446468 -0.624311
4.450466 -0.622949
4.454466 -0.610773
4.458467 -0.609605
4.462479 -0.627871
4.466467 -0.656120
4.470466 -0.678217
4.474674 -0.685005
4.478466 -0.676916
4.482469 -0.656033
4.486464 -0.619179
4.490464 -0.559719
4.494615 -0.474036
4.498464 -0.364117
4.502476 -0.235571
4.506464 -0.097845
4.510464  0.033068
4.514464  0.137768
4.518465  0.203608
4.522477  0.230441
4.526464  0.224324
4.530631  0.187553
4.534463  0.117725
4.538464  0.015366
4.542612 -0.110510
4.546536 -0.244853
4.550467 -0.373656
4.554471 -0.488720
4.558459 -0.587085
4.562463 -0.668872
4.566468 -0.738026
4.570455 -0.803468
4.574462 -0.874617
4.578461 -0.952591
4.582599 -1.027392
4.586577 -1.086772
4.590466 -1.126154
4.594466 -1.146239
4.598467 -1.145919
4.602651 -1.129353
4.606471 -1.121478
4.610448 -1.162794
4.614505 -1.278226
4.618472 -1.450846
4.622530 -1.617703
4.626465 -1.672790
4.630466 -1.475151
4.634473 -0.890708
4.638473  0.120102
4.642473  1.413418
4.646478  2.653292
4.650534  3.437042
4.654466  3.506888
4.658478  2.893573
4.662532  1.868495
4.666475  0.758985
4.670681 -0.205343
4.674480 -0.926108
4.678475 -1.392209
4.682478 -1.634114
4.686466 -1.705062
4.690464 -1.672688
4.694464 -1.601481
4.698463 -1.532304
4.702473 -1.477881
4.706458 -1.435177
4.710464 -1.396913
4.714478 -1.353344
4.718499 -1.294187
4.722466 -1.217492
4.726459 -1.135412
4.730476 -1.067186
4.734465 -1.025180
4.738467 -1.006259
4.742483 -0.994720
4.746468 -0.973979
4.750471 -0.938013
4.754472 -0.894122
4.758463 -0.854844
4.762470 -0.825905
4.766463 -0.803159
4.770465 -0.782146
4.774471 -0.765195
4.778473 -0.753204
4.782470 -0.733987
4.786473 -0.687839
4.790464 -0.608260
4.794466 -0.513044
4.798465 -0.431157
4.802610 -0.379569
4.806468 -0.352287
4.810466 -0.327183
4.814597 -0.281392
4.818475 -0.204559
4.822479 -0.104200
4.826465 -0.001717
4.830473  0.080526
4.834658  0.136067
4.838675  0.181697
4.842479  0.244214
4.846465  0.336058
4.862470  0.444465
4.866471  0.544321
4.870472  0.617842
4.874535  0.661364
4.878496  0.678958
4.882472  0.674352
4.886474  0.649204
4.890474  0.607718
4.894528  0.561212
4.898466  0.525709
4.902467  0.511737
4.906470  0.513425
4.910468  0.507553
4.914445  0.467142
4.918684  0.380442
4.922446  0.258529
4.926439  0.124921
4.930552 -0.001207
4.934464 -0.112569
4.938464 -0.210314
4.942476 -0.299542
4.946464 -0.388459
4.950464 -0.484715
4.954472 -0.584761
4.958471 -0.666116
4.962480 -0.698911
4.966477 -0.674198
4.970473 -0.618040
4.974473 -0.571293
4.978466 -0.558471
4.982470 -0.577436
4.986464 -0.610648
4.990463 -0.640995
4.994464 -0.660309
4.998587 -0.667934
5.002470 -0.664861
5.006472 -0.652010
5.010465 -0.633789
5.014471 -0.618475
5.018478 -0.610867
5.022473 -0.606311
5.026727 -0.596044
5.030562 -0.578195
5.034463 -0.559371
5.038464 -0.544633
5.042471 -0.530664
5.046478 -0.511707
5.050468 -0.489265
5.054592 -0.471642
5.058473 -0.462917
5.063607 -0.454816
5.066548 -0.433126
5.070465 -0.393721
5.074464 -0.350525
5.078465 -0.325106
5.086458 -0.327971
5.090464 -0.350778
5.094456 -0.376075
5.098604 -0.392654
5.102464 -0.401667
5.106463 -0.411189
5.110459 -0.427064
5.114463 -0.447840
5.118466 -0.466879
5.122468 -0.478598
5.126458 -0.482248
5.130463 -0.480193
5.134458 -0.473223
5.138476 -0.457612
5.142476 -0.427916
5.146587 -0.385399
5.150461 -0.344216
5.154478 -0.325158
5.158471 -0.338594
5.162700 -0.372787
5.166465 -0.400744
5.170463 -0.400087
5.174458 -0.368224
5.178478 -0.321095
5.182467 -0.278180
5.186465 -0.246127
5.190460 -0.212892
5.194602 -0.155163
5.198464 -0.051075
5.202476  0.110644
5.206461  0.324720
5.210676  0.566863
5.214466  0.801047
5.218586  0.991640
5.222443  1.110325
5.226471  1.141472
5.230458  1.089070
5.234464  0.976743
5.238458  0.836120
5.242481  0.690882
5.246460  0.548133
5.250469  0.402972
5.254461  0.251302
5.258467  0.099006
5.262468 -0.040846
5.266463 -0.159092
5.270466 -0.257484
5.274471 -0.344540
5.278459 -0.425491
5.282606 -0.495661
5.286463 -0.542849
5.290477 -0.558733
5.294457 -0.550702
5.298473 -0.542025
5.302475 -0.560763
5.306468 -0.629461
5.310462 -0.759692
5.314473 -0.946116
5.318463 -1.157386
5.322471 -1.323454
5.326460 -1.326993
5.330466 -1.023040
5.334468 -0.304576
5.338466  0.806568
5.342588  2.101490
5.346474  3.221966
5.350548  3.810161
5.354596  3.692690
5.358462  2.964405
5.362478  1.908346
5.366467  0.829973
5.370467 -0.063823
5.374470 -0.687067
5.378475 -1.037611
5.382466 -1.158953
5.386473 -1.121451
5.390460 -1.008215
5.394465 -0.890091
5.398460 -0.798568
5.402608 -0.721036
5.406487 -0.628004
5.410455 -0.508808
5.414454 -0.380170
5.418448 -0.265625
5.422469 -0.178080
5.426456 -0.119763
5.430453 -0.084484
5.434441 -0.058289
5.438467 -0.028801
5.442481  0.005045
5.446462  0.037750
5.450465  0.066569
5.454472  0.090636
5.458468  0.107541
5.462467  0.118486
5.466606  0.133802
5.470467  0.165859
5.474473  0.215347
5.478469  0.268187
5.482472  0.306687
5.486459  0.322463
5.490466  0.320833
5.494467  0.318195
5.498448  0.336210
5.502506  0.391338
5.506476  0.482196
5.510462  0.586972
5.514462  0.678542
5.518447  0.745589
5.522448  0.798502
5.526665  0.854445
5.530461  0.918462
5.534466  0.979345
5.538463  1.021494
5.542464  1.039831
5.546463  1.045205
5.550470  1.057692
5.554449  1.094479
5.558469  1.159150
5.562479  1.236274
5.566580  1.298274
5.570473  1.326573
5.574470  1.329422
5.578477  1.333822
5.582462  1.355777
5.586459  1.382146
5.590468  1.384972
5.594466  1.347727
5.598460  1.273953
5.602470  1.177924
5.606460  1.072844
5.610473  0.964927
5.614467  0.855149
5.618467  0.746004
5.622477  0.645250
5.626468  0.561971
5.630469  0.499551
5.634473  0.453377
5.638460  0.415948
5.642606  0.383229
5.646471  0.353401
5.650467  0.320206
5.654460  0.272205
5.658466  0.199929
5.662771  0.101655
5.666449 -0.014856
5.670446 -0.130067
5.674455 -0.215642
5.678459 -0.250569
5.682545 -0.236573
5.686442 -0.194501
5.690459 -0.148501
5.694465 -0.114704
5.698471 -0.098341
5.702463 -0.096396
5.706464 -0.102983
5.710467 -0.113180
5.714464 -0.122442
5.718465 -0.124360
5.722476 -0.112599
5.726454 -0.087662
5.730471 -0.060280
5.734465 -0.044685
5.738466 -0.047325
5.742463 -0.062650
5.746476 -0.080579
5.750464 -0.098308
5.754465 -0.122984
5.758460 -0.160766
5.762471 -0.204847
5.766467 -0.237713
5.770537 -0.246065
5.774580 -0.232365
5.778673 -0.212334
5.782472 -0.203485
5.786475 -0.215170
5.790459 -0.243746
5.794530 -0.272829
5.798744 -0.280718
5.802477 -0.253221
5.806540 -0.193532
5.810472 -0.122304
5.814507 -0.067548
5.818471 -0.049109
5.822472 -0.067171
5.826442 -0.105420
5.830458 -0.147511
5.834476 -0.189356
5.838462 -0.234502
5.842471 -0.282718
5.846467 -0.328906
5.850466 -0.372069
5.854460 -0.420622
5.858467 -0.487215
5.862466 -0.578008
5.866473 -0.683559
5.870460 -0.777267
5.874473 -0.828580
5.878471 -0.826617
5.882472 -0.788772
5.886460 -0.741594
5.890735 -0.699659
5.894460 -0.665118
5.898459 -0.635370
5.902474 -0.604478
5.906465 -0.566005
5.910460 -0.521636
5.914466 -0.482508
5.918458 -0.455067
5.922476 -0.425508
5.926677 -0.365353
5.930466 -0.258582
5.934465 -0.120278
5.938466  0.015973
5.942463  0.125016
5.946566  0.200551
5.950463  0.244753
5.954466  0.256661
5.958460  0.232864
5.962471  0.174599
5.966466  0.090375
5.970473 -0.007032
5.974460 -0.105429
5.978478 -0.198602
5.982475 -0.289816
5.986445 -0.388426
5.990464 -0.499914
5.994464 -0.617983
5.998458 -0.726138
6.002669 -0.807406
6.006459 -0.855833
6.010456 -0.881408
6.014470 -0.901921
6.018470 -0.927490
6.022466 -0.954738
6.026466 -0.979471
6.030596 -1.014187
6.034462 -1.087183
6.038457 -1.219216
6.042483 -1.400063
6.046471 -1.583495
6.050466 -1.691478
6.054460 -1.616925
6.058731 -1.243747
6.063047 -0.502915
6.067455  0.559266
6.070465  1.747613
6.074471  2.753487
6.078593  3.272086
6.082468  3.157569
6.086464  2.500682
6.090471  1.555202
6.094680  0.584253
6.098464 -0.242850
6.102524 -0.856826
6.106443 -1.246748
6.110465 -1.429153
6.114469 -1.440870
6.118471 -1.336258
6.122746 -1.174272
6.126471 -1.001589
6.130466 -0.846245
6.134457 -0.723142
6.142470 -0.639734
6.146463 -0.595765
6.150464 -0.580659
6.154463 -0.572574
6.158471 -0.544300
6.162476 -0.479772
6.166474 -0.389705
6.170464 -0.307881
6.174465 -0.268231
6.178465 -0.280163
6.182478 -0.319663
6.187429 -0.344256
6.190549 -0.321850
6.194473 -0.249645
6.198473 -0.148740
6.202471 -0.044708
6.206598  0.044707
6.210466  0.109058
6.214464  0.144075
6.218471  0.156092
6.222469  0.162392
6.226464  0.180034
6.230478  0.212521
6.234469  0.250217
6.238466  0.284593
6.242472  0.318437
6.246466  0.360825
6.250473  0.416288
6.254466  0.481668
6.258466  0.550831
6.262481  0.618799
6.266468  0.681064
6.270466  0.731975
6.274466  0.767826
6.278466  0.792461
6.282478  0.816738
6.286470  0.849956
6.290465  0.891976
6.294687  0.932733
6.298469  0.958237
6.302470  0.959609
6.306476  0.938768
6.310467  0.904268
6.314474  0.862653
6.318465  0.817153
6.322472  0.771840
6.326465  0.729820
6.330466  0.687064
6.334464  0.634517
6.338476  0.568685
6.342473  0.495758
6.346474  0.422468
6.350466  0.346552
6.354466  0.260501
6.358466  0.163313
6.362471  0.065626
6.366478 -0.016334
6.370468 -0.072035
6.374473 -0.103583
6.378473 -0.121755
6.382470 -0.136419
6.386479 -0.151863
6.390469 -0.166422
6.394465 -0.171249
6.398475 -0.152752
6.402536 -0.102882
6.406506 -0.028253
6.410471  0.052367
6.414513  0.119325
6.418455  0.162124
6.422478  0.181962
6.426445  0.185817
6.430473  0.177295
6.434467  0.154486
6.438540  0.118045
6.442472  0.077636
6.446472  0.045557
6.450467  0.025658
6.454465  0.013477
6.458466  0.006645
6.462481  0.009674
6.466478  0.025715
6.470460  0.046569
6.474457  0.056186
6.478471  0.046056
6.482470  0.023975
6.486478  0.005328
6.490477 -0.001255
6.494466  0.002939
6.498478  0.014230
6.502475  0.031413
6.506466  0.051770
6.510466  0.066813
6.514466  0.068140
6.518466  0.058562
6.522478  0.051899
6.526466  0.056539
6.530465  0.061362
6.534466  0.044323
6.538466 -0.003542
6.542478 -0.066145
6.546465 -0.115732
6.550473 -0.137284
6.554621 -0.138978
6.558670 -0.137950
6.562480 -0.138150
6.566473 -0.126869
6.570473 -0.092375
6.574466 -0.039459
6.578584  0.013593
6.582478  0.050100
6.586466  0.066513
6.590589  0.073005
6.594466  0.087282
6.598466  0.127894
6.602478  0.207694
6.606466  0.326419
6.610466  0.466992
6.614466  0.602488
6.618468  0.711270
6.622481  0.786262
6.626466  0.828639
6.630466  0.835195
6.634466  0.797254
6.638466  0.713699
6.642473  0.600651
6.646605  0.481918
6.650575  0.368730
6.654468  0.253806
6.658466  0.126484
6.662471 -0.012262
6.666466 -0.151680
6.670473 -0.281570
6.674465 -0.395352
6.678466 -0.484366
6.682678 -0.534922
6.686468 -0.536616
6.690465 -0.494450
6.694531 -0.430531
6.698476 -0.374254
6.702478 -0.350796
6.706464 -0.374766
6.710501 -0.451370
6.714467 -0.581058
6.718472 -0.757335
6.722451 -0.954664
6.726443 -1.113615
6.730714 -1.133612
6.734464 -0.888554
6.738464 -0.277947
6.742483  0.696808
6.746468  1.871986
6.750465  2.934928
6.754478  3.542482
6.758470  3.489871
6.762471  2.806456
6.766478  1.712217
6.770468  0.499351
6.778478 -0.567417
6.782472 -1.315278
6.786460 -1.701986
6.790465 -1.803980
6.794471 -1.749085
6.798474 -1.642187
6.802472 -1.531469
6.806479 -1.420365
6.810469 -1.299544
6.814466 -1.170510
6.818481 -1.048781
6.822508 -0.952308
6.826466 -0.887278
6.830477 -0.841304
6.834467 -0.789858
6.838466 -0.712497
6.842460 -0.604857
6.846471 -0.478568
6.850476 -0.355218
6.854475 -0.256899
6.858463 -0.191669
6.862470 -0.145578
6.866463 -0.094885
6.870472 -0.028009
6.874463  0.046627
6.878464  0.111964
6.882483  0.156934
6.886468  0.180778
6.890466  0.188303
6.894466  0.185632
6.898473  0.181105
6.902478  0.185523
6.906473  0.206010
6.910466  0.240106
6.914466  0.280059
6.918473  0.323128
6.922472  0.375015
6.926466  0.442939
6.930465  0.525483
6.934466  0.607570
6.938478  0.665921
6.942473  0.684355
6.946466  0.669569
6.950447  0.652507
6.954962  0.666939
6.958473  0.719245
6.962451  0.780458
6.966443  0.811210
6.970671  0.792492
6.974464  0.733585
6.978464  0.658406
6.982469  0.588457
6.986465  0.535367
6.990471  0.503989
6.994536  0.496676
6.998471  0.510402
7.002461  0.532755
7.006518  0.547226
7.010446  0.545241
7.014470  0.534646
7.018472  0.534710
7.022475  0.551543
7.026472  0.549948
7.030460  0.463169
7.034478  0.261074
7.038468  0.020583
7.042480 -0.108405
7.046580 -0.048227
7.050455  0.118646
7.054470  0.242014
7.058679  0.254372
7.062651  0.199809
7.066463  0.148624
7.070444  0.124253
7.074458  0.106352
7.078464  0.073578
7.082477  0.028676
7.086471 -0.010909
7.090639 -0.035775
7.094472 -0.053343
7.098464 -0.076956
7.102582 -0.112585
7.106464 -0.158276
7.110464 -0.211198
7.114471 -0.268791
7.118464 -0.323604
7.122470 -0.363306
7.126464 -0.379912
7.130464 -0.377551
7.134472 -0.367679
7.138464 -0.356899
7.142470 -0.342573
7.146463 -0.320760
7.150478 -0.295077
7.154466 -0.275146
7.158680 -0.267755
7.162478 -0.271936
7.166465 -0.281846
7.170467 -0.292048
7.174469 -0.299901
7.178461 -0.304686
7.182464 -0.305666
7.186464 -0.301781
7.190478 -0.293843
7.194468 -0.285768
7.198466 -0.281893
7.202478 -0.284391
7.206473 -0.295760
7.210697 -0.321742
7.214463 -0.365460
7.218464 -0.416372
7.222476 -0.450517
7.226464 -0.447315
7.230464 -0.404966
7.234464 -0.337508
7.238550 -0.260871
7.242470 -0.185402
7.246471 -0.118584
7.250464 -0.068552
7.254464 -0.041130
7.258464 -0.033708
7.262469 -0.034168
7.266471 -0.026511
7.270464  0.003189
7.274464  0.065699
7.278476  0.168814
7.282473  0.310803
7.286620  0.469891
7.290471  0.608464
7.294445  0.701449
7.298463  0.761989
7.302473  0.826000
7.306512  0.906749
7.310463  0.977069
7.314716  1.000229
7.318469  0.964332
7.322467  0.881484
7.326448  0.767996
7.330684  0.636736
7.334602  0.500697
7.338460  0.369963
7.342471  0.244610
7.346474  0.117674
7.350465 -0.015291
7.354474 -0.151638
7.358469 -0.282276
7.362471 -0.394329
7.366466 -0.477597
7.370552 -0.533323
7.374478 -0.577202
7.378468 -0.633043
7.382471 -0.722976
7.386465 -0.860054
7.390473 -1.043719
7.394669 -1.255349
7.398447 -1.448567
7.402470 -1.535859
7.406483 -1.391478
7.410475 -0.893142
7.414473  0.002907
7.418475  1.191099
7.422479  2.400741
7.426475  3.275503
7.430465  3.536576
7.434467  3.132863
7.438465  2.256754
7.442646  1.208605
7.446466  0.228615
7.450464 -0.574944
7.454464 -1.185619
7.458471 -1.607588
7.462477 -1.837130
7.466450 -1.882111
7.470584 -1.786107
7.474468 -1.621039
7.478475 -1.453072
7.482472 -1.314096
7.486466 -1.202027
7.490478 -1.102859
7.494662 -1.009055
7.498471 -0.920491
7.502470 -0.837172
7.506463 -0.757592
7.510472 -0.682242
7.514471 -0.612159
7.518460 -0.542449
7.522478 -0.464313
7.526461 -0.378466
7.530473 -0.300061
7.534466 -0.242874
7.538465 -0.201240
7.542473 -0.152961
7.546473 -0.080446
7.550469  0.011382
7.554694  0.097233
7.558462  0.152099
7.562470  0.171308
7.566463  0.171438
7.570463  0.173381
7.574445  0.185056
7.578466  0.198933
7.582476  0.206501
7.586466  0.216122
7.590478  0.251918
7.594467  0.330867
7.598462  0.447338
7.602454  0.582645
7.606469  0.718233
7.610506  0.835855
7.614560  0.919446
7.618453  0.968845
7.622472  1.007137
7.626471  1.061991
7.630466  1.135309
7.634467  1.198211
7.638475  1.219998
7.642470  1.196236
7.646466  1.145678
7.650466  1.087653
7.654466  1.029006
7.658473  0.968136
7.662471  0.903279
7.666468  0.835228
7.670471  0.765754
7.674471  0.696217
7.678471  0.627214
7.682472  0.557523
7.686463  0.482511
7.690464  0.395575
7.694463  0.294410
7.698467  0.186190
7.702469  0.083755
7.706472 -0.004458
7.710463 -0.079419
7.714632 -0.146806
7.718466 -0.209507
7.722681 -0.265887
7.726463 -0.315035
7.730466 -0.361954
7.734465 -0.414955
7.738464 -0.476892
7.742475 -0.540358
7.746464 -0.592826
7.750478 -0.626156
7.754634 -0.640126
7.758466 -0.637437
7.762471 -0.619240
7.766466 -0.589077
7.770473 -0.558376
7.774466 -0.541157
7.778462 -0.541180
7.782468 -0.548448
7.786465 -0.550615
7.790471 -0.544514
7.794532 -0.534831
7.798471 -0.525405
7.802475 -0.515033
7.806464 -0.499875
7.810459 -0.477135
7.814636 -0.446764
7.818464 -0.411362
7.822478 -0.374926
7.826466 -0.342731
7.830466 -0.323470
7.834634 -0.327284
7.838466 -0.354835
7.842479 -0.388606
7.846466 -0.401639
7.850473 -0.378267
7.854474 -0.325350
7.858467 -0.264270
7.862471 -0.215052
7.866462 -0.188180
7.870462 -0.187080
7.874464 -0.212015
7.878469 -0.257583
7.882467 -0.308163
7.886462 -0.341551
7.890462 -0.341835
7.894627 -0.311498
7.898471 -0.272290
7.902480 -0.252149
7.906471 -0.265455
7.910448 -0.301198
7.914443 -0.331261
7.918472 -0.334292
7.922469 -0.312002
7.926471 -0.282989
7.930465 -0.266058
7.934682 -0.270427
7.938508 -0.293889
7.942538 -0.321209
7.946466 -0.323507
7.950478 -0.270859
7.954472 -0.157934
7.958474 -0.014652
7.962465  0.115726
7.966466  0.205855
7.970461  0.253293
7.974721  0.275830
7.978473  0.304730
7.982469  0.370246
7.986464  0.479715
7.990476  0.607289
7.994468  0.709842
7.998466  0.756448
8.002642  0.743523
8.006473  0.684668
8.010466  0.592267
8.014466  0.472798
8.018466  0.336048
8.022471  0.199988
8.026476  0.081651
8.030475 -0.015050
8.034650 -0.101675
8.038456 -0.197833
8.042543 -0.316765
8.046470 -0.448221
8.050473 -0.556212
8.054476 -0.604899
8.058469 -0.592473
8.062638 -0.556423
8.066464 -0.543228
8.070471 -0.573896
8.074464 -0.637064
8.078464 -0.710286
8.082469 -0.786801
8.086465 -0.885034
8.090471 -1.030941
8.094464 -1.224117
8.098464 -1.418659
8.102483 -1.541806
8.106468 -1.529563
8.110616 -1.328842
8.114459 -0.866497
8.118483 -0.067062
8.122470  1.039820
8.126532  2.224673
8.130475  3.112108
8.134848  3.381286
8.138633  2.958490
8.142477  2.040837
8.146464  0.945045
8.150547 -0.071563
8.154473 -0.883370
8.158466 -1.460224
8.162470 -1.808654
8.166466 -1.951901
8.170465 -1.937596
8.174727 -1.833609
8.178462 -1.704310
8.182475 -1.589658
8.186464 -1.500411
8.190471 -1.424657
8.194670 -1.341368
8.198556 -1.237147
8.202478 -1.115018
8.206524 -0.990452
8.210471 -0.882929
8.214471 -0.807688
8.218447 -0.766226
8.222466 -0.741717
8.226467 -0.708414
8.230744 -0.650294
8.234630 -0.569519
8.238465 -0.473457
8.242505 -0.360450
8.246645 -0.229924
8.250470 -0.099764
8.254464  0.001900
8.258476  0.060201
8.262473  0.081049
8.266465  0.079491
8.270589  0.066566
8.274468  0.046111
8.278466  0.019559
8.282479 -0.009664
8.286465 -0.035243
8.290466 -0.048362
8.294537 -0.041678
8.298580 -0.016732
8.302466  0.017132
8.306466  0.054958
8.310516  0.101333
8.314468  0.160858
8.318463  0.230917
8.322471  0.306080
8.326458  0.381940
8.330464  0.451727
8.334473  0.506186
8.338466  0.542306
8.342478  0.569039
8.346478  0.598657
8.350469  0.632451
8.354466  0.658715
8.358473  0.665020
8.362471  0.650075
8.366466  0.623149
8.370478  0.593158
8.374475  0.560793
8.378466  0.523642
8.382478  0.486034
8.386466  0.457416
8.390473  0.440428
8.394467  0.426339
8.398457  0.405310
8.402667  0.377119
8.406600  0.346740
8.410464  0.311687
8.414463  0.261124
8.418465  0.189063
8.422476  0.102562
8.426464  0.014001
8.430463 -0.069603
8.434472 -0.144972
8.438463 -0.203827
8.442477 -0.234068
8.446471 -0.233519
8.450464 -0.217956
8.454471 -0.209766
8.458465 -0.219097
8.462468 -0.238633
8.466465 -0.255292
8.470463 -0.263588
8.474473 -0.267224
8.478463 -0.269522
8.482651 -0.264493
8.486742 -0.242067
8.490454 -0.203913
8.494515 -0.166283
8.498472 -0.141606
8.502522 -0.123335
8.506449 -0.094120
8.510471 -0.045055
8.514490  0.016776
8.518453  0.076688
8.522451  0.123925
8.526473  0.154717
8.530472  0.167812
8.534463  0.162651
8.538472  0.144911
8.542549  0.130378
8.546521  0.136438
8.550544  0.166600
8.554473  0.206648
8.558466  0.239939
8.562742  0.264120
8.566471  0.287322
8.570467  0.309870
8.574461  0.318777
8.578461  0.302815
8.582475  0.265995
8.586471  0.222396
8.590464  0.182904
8.594463  0.151094
8.598465  0.127348
8.602483  0.110367
8.606468  0.095128
8.610467  0.074607
8.614473  0.046578
8.618466  0.017741
8.622471 -0.000112
8.626576  0.002403
8.630466  0.027854
8.634478  0.072700
8.638520  0.131451
8.642478  0.200927
8.646466  0.281754
8.650465  0.377070
8.654555  0.490152
8.658475  0.622121
8.662479  0.770509
8.666465  0.928853
8.670643  1.087096
8.674560  1.232337
8.678469  1.348563
8.682475  1.415903
8.686464  1.415894
8.690462  1.345854
8.702675  1.227527
8.706468  1.093553
8.710679  0.965246
8.714603  0.848381
8.718464  0.745456
8.722470  0.661869
8.726591  0.598367
8.730468  0.543120
8.734466  0.477431
8.738467  0.393642
8.742483  0.308199
8.746734  0.251746
8.750474  0.240324
8.754462  0.258006
8.758455  0.270234
8.762468  0.247941
8.766655  0.176146
8.770468  0.051267
8.774466 -0.116025
8.778478 -0.290976
8.782473 -0.405526
8.786468 -0.355948
8.790475 -0.020606
8.794466  0.687440
8.798473  1.743961
8.802684  2.960037
8.806522  4.010087
8.810471  4.564241
8.814476  4.462355
8.818471  3.798132
8.822471  2.836663
8.826471  1.842755
8.830467  0.970000
8.834467  0.269847
8.838472 -0.243806
8.842476 -0.558812
8.846473 -0.675145
8.850476 -0.623243
8.854567 -0.458763
8.858473 -0.241422
 8.862471  0.062769
 8.866473  0.176272
 8.870467  0.291525
 8.874468  0.398158
 8.878467  0.486978
 8.882473  0.568014
 8.886532  0.661148
 8.890716  0.768867
 8.894467  0.869908
 8.898441  0.945322
 8.902475  1.003514
 8.906471  1.070416
 8.910472  1.155798
 8.914473  1.238872
 8.918466  1.290787
 8.926466  1.302599
 8.930472  1.286910
 8.934466  1.261847
 8.938465  1.241059
 8.942472  1.233774
 8.946476  1.244792
 8.950468  1.270729
 8.954465  1.299466
 8.958466  1.317931
 8.962470  1.321470
 8.966474  1.314472
 8.970465  1.303583
 8.974466  1.293592
 8.978465  1.289100
 8.982472  1.295353
 8.986473  1.314190
 8.990466  1.340910
 8.994465  1.368695
 8.998466  1.395578
 9.002470  1.423200
 9.006474  1.448707
 9.010465  1.462934
 9.014466  1.459728
 9.018466  1.444553
 9.022472  1.429596
 9.026473  1.419481
 9.030466  1.405588
 9.034465  1.377615
 9.038466  1.337969
 9.042470  1.300141
 9.046474  1.272986
 9.050473  1.249991
 9.054467  1.215406
 9.058465  1.159167
 9.062923  1.084370
 9.066473  1.001596
 9.070458  0.918477
 9.074471  0.834984
 9.078466  0.747016
 9.082476  0.653283
 9.086459  0.558335
 9.090471  0.469509
 9.094518  0.392466
 9.098440  0.330358
 9.102520  0.287335
 9.106471  0.271944
 9.110465  0.291769
 9.114471  0.340568
 9.118465  0.396128
 9.122638  0.436080
 9.126659  0.451920
 9.130464  0.446423
 9.134591  0.424470
 9.138633  0.390068
 9.142466  0.348430
 9.146488  0.306288
 9.150494  0.268887
 9.154466  0.238294
 9.158583  0.215834
 9.162480  0.204649
 9.166468  0.208193
 9.170466  0.226755
 9.174461  0.255889
 9.178465  0.287465
 9.182466  0.311926
 9.186473  0.320133
 9.190463  0.305013
 9.194465  0.265177
 9.198461  0.208656
 9.202469  0.150571
 9.206465  0.104552
 9.210465  0.075782
 9.214469  0.061838
 9.218474  0.059971
 9.222464  0.072374
 9.226473  0.101666
 9.230469  0.142182
 9.234466  0.180197
 9.238459  0.204023
 9.242472  0.212260
 9.246465  0.212364
 9.250474  0.212872
 9.254467  0.216947
 9.258765  0.220936
 9.262466  0.217122
 9.266463  0.199037
 9.270458  0.167211
 9.274477  0.130272
 9.278449  0.098465
 9.282477  0.075859
 9.286459  0.058691
 9.290463  0.039145
 9.294459  0.011633
 9.298463 -0.021390
 9.302472 -0.050865
 9.306636 -0.071383
 9.310458 -0.087706
 9.314463 -0.106730
 9.318458 -0.124462
 9.322476 -0.125164
 9.326459 -0.094108
 9.330465 -0.030516
 9.338463  0.051934
 9.342464  0.136760
 9.346469  0.215599
 9.350453  0.289253
 9.354464  0.363545
 9.358465  0.447083
 9.362648  0.548630
 9.366580  0.669394
 9.370466  0.795372
 9.374470  0.900109
 9.378469  0.958540
 9.382474  0.960380
 9.386467  0.912334
 9.390460  0.830990
 9.394524  0.735012
 9.398543  0.638860
 9.402446  0.547744
 9.406447  0.457822
 9.410653  0.361860
 9.414460  0.255701
 9.418449  0.143852
 9.422441  0.040886
 9.426463 -0.037620
 9.430458 -0.089877
 9.434463 -0.131973
 9.438471 -0.184054
 9.442473 -0.251929
 9.446460 -0.323637
 9.450473 -0.384196
 9.454467 -0.432430
 9.458474 -0.484414
 9.462472 -0.563679
 9.466473 -0.687665
 9.470467 -0.858222
 9.474473 -1.055257
 9.478468 -1.223897
 9.482478 -1.258125
 9.486460 -1.012573
 9.490467 -0.368980
 9.494461  0.666965
 9.498475  1.903576
 9.502466  2.997263
 9.506475  3.598250
 9.510787  3.534735
 9.514468  2.894682
 9.518465  1.937805
 9.522469  0.934051
 9.526509  0.065848
 9.530440 -0.580384
 9.534465 -0.989417
 9.538464 -1.192515
 9.542464 -1.243065
 9.546471 -1.197600
 9.550458 -1.108045
 9.554473 -1.016212
 9.558467 -0.944066
 9.562478 -0.888493
 9.566467 -0.830285
 9.570517 -0.754999
 9.574473 -0.669347
 9.578465 -0.594740
 9.582466 -0.544738
 9.586465 -0.515332
 9.590461 -0.495871
 9.594473 -0.479188
 9.598460 -0.460167
 9.602472 -0.434495
 9.606460 -0.403917
 9.610466 -0.377228
 9.614468 -0.359674
 9.618473 -0.343449
 9.622466 -0.314801
 9.626478 -0.270103
 9.630463 -0.219665
 9.634466 -0.174538
 9.638467 -0.133041
 9.642471 -0.083526
 9.646467 -0.019952
 9.650715  0.049718
 9.654467  0.113208
 9.658466  0.169026
 9.662484  0.229211
 9.666469  0.308775
 9.670467  0.412741
 9.674474  0.530415
 9.678453  0.640698
 9.682643  0.723784
 9.686458  0.770413
 9.690471  0.785763
 9.694668  0.789118
 9.698465  0.808603
 9.702446  0.869182
 9.706467  0.973679
 9.710463  1.090622
 9.714453  1.173657
 9.718461  1.203674
 9.722850  1.204350
 9.726568  1.210822
 9.730473  1.232267
 9.734458  1.250782
 9.738464  1.247517
 9.742477  1.219932
 9.746468  1.175283
 9.750460  1.115167
 9.754466  1.031941
 9.758467  0.920582
 9.762471  0.789219
 9.766467  0.654482
 9.771314  0.529620
 9.774473  0.419805
 9.778469  0.324785
 9.782464  0.242148
 9.786464  0.169608
 9.790457  0.106071
 9.794471  0.048889
 9.798458 -0.012426
 9.802478 -0.099175
 9.806465 -0.233409
 9.810471 -0.411795
 9.814474 -0.582655
 9.818545 -0.667566
 9.822604 -0.631294
 9.826469 -0.521951
 9.830475 -0.420989
 9.834672 -0.364867
 9.838677 -0.332298
 9.842479 -0.292996
 9.846471 -0.246406
 9.850472 -0.214685
 9.854464 -0.214815
 9.858461 -0.243822
 9.862469 -0.284340
 9.866855 -0.319901
 9.870469 -0.345234
 9.874464 -0.361994
 9.878598 -0.366407
 9.882476 -0.345750
 9.886469 -0.290384
 9.890477 -0.208282
 9.894467 -0.123770
 9.898466 -0.060467
 9.902685 -0.027633
 9.906467 -0.021403
 9.910463 -0.032038
 9.914476 -0.048662
 9.918468 -0.064264
 9.922471 -0.080523
 9.926466 -0.105994
 9.930473 -0.147448
 9.934466 -0.201548
 9.938466 -0.253598
 9.942472 -0.284963
 9.946478 -0.284430
 9.950475 -0.255548
 9.954469 -0.214354
 9.958443 -0.178575
 9.962567 -0.157751
 9.966473 -0.153622
 9.970473 -0.167010
 9.974466 -0.200296
 9.978466 -0.254235
 9.982471 -0.325600
 9.986478 -0.406486
 9.990468 -0.482467
 9.994598 -0.534583
 9.998476 -0.549208
10.002453 -0.525710
10.006624 -0.474650
10.010474 -0.413397
10.014515 -0.359527
10.018517 -0.318897
10.022451 -0.283005
10.026461 -0.244729
10.030474 -0.211120
10.034466 -0.194493
10.038465 -0.195163
10.042472 -0.198784
10.046464 -0.191547
10.050476 -0.173899
10.054465 -0.153372
10.058466 -0.125533
10.062655 -0.071206
10.066475  0.023456
10.070466  0.148362
10.074473  0.273831
10.078466  0.371420
10.082474  0.428768
10.086466  0.446457
10.090466  0.426251
10.094465  0.367383
10.098466  0.272994
10.102478  0.153549
10.106466  0.019788
10.110468 -0.125305
10.114466 -0.283566
10.118466 -0.450753
10.122480 -0.611881
10.126466 -0.749673
10.130466 -0.856524
10.134471 -0.936181
10.138460 -0.995064
10.142480 -1.035878
10.146467 -1.060955
10.150466 -1.077887
10.154466 -1.096567
10.158466 -1.120586
10.162627 -1.147776
10.166466 -1.183772
10.170466 -1.250132
10.174477 -1.370207
10.178466 -1.545172
10.182471 -1.744876
10.186466 -1.912608
10.190466 -1.964219
10.194473 -1.785225
10.198467 -1.258167
10.202471 -0.336187
10.206466  0.872649
10.210466  2.082179
10.214473  2.922064
10.218466  3.122944
10.222471  2.665015
10.226465  1.764719
10.230463  0.721100
10.234472 -0.233565
10.238463 -0.980866
10.242470 -1.486436
10.246463 -1.761862
10.250464 -1.846592
10.254478 -1.797656
10.258468 -1.673386
10.262471 -1.517528
10.266473 -1.357925
10.270466 -1.216200
10.274466 -1.109989
10.278473 -1.042049
10.282647 -0.992037
10.286519 -0.928519
10.290469 -0.835731
10.294526 -0.725684
10.298473 -0.620366
10.302455 -0.528391
10.306473 -0.444975
10.310475 -0.368940
10.314473 -0.309279
10.318474 -0.270676
10.322589 -0.238561
10.326468 -0.190060
10.330469 -0.122895
10.334466 -0.062465
10.338466 -0.032526
10.342471 -0.026957
10.346466 -0.018923
10.350475  0.007758
10.354466  0.044912
10.358466  0.075434
10.362472  0.093470
10.366467  0.104864
10.370473  0.113287
10.374466  0.115729
10.378466  0.113043
10.382476  0.116595
10.386464  0.138814
10.390476  0.180430
10.394465  0.231705
10.398465  0.284803
10.402470  0.340104
10.406464  0.399479
10.410464  0.457595
10.414472  0.503502
10.418464  0.530427
10.422469  0.542396
10.426464  0.551033
10.430471  0.566847
10.434471  0.593661
10.438466  0.629833
10.442470  0.672442
10.446467  0.716761
10.450466  0.748239
10.454468  0.736382
10.458465  0.646379
10.462471  0.474080
10.466473  0.277464
10.470545  0.150089
10.474472  0.135849
10.478447  0.185181
10.482468  0.214587
10.486469  0.184782
10.490446  0.107895
10.494474  0.010680
10.498439 -0.088553
10.502469 -0.181150
10.506445 -0.264251
10.510471 -0.339503
10.514447 -0.410418
10.518463 -0.476700
10.522470 -0.532583
10.526463 -0.572832
10.530472 -0.598455
10.534463 -0.613988
10.538472 -0.620546
10.542476 -0.614687
10.546465 -0.594555
10.550463 -0.564969
10.554464 -0.534010
10.558463 -0.504161
10.562479 -0.469921
10.566473 -0.427381
10.570466 -0.383808
10.574464 -0.352825
10.578464 -0.340305
10.582470 -0.338527
10.586476 -0.333893
10.590469 -0.317322
10.594473 -0.287028
10.598476 -0.244426
10.602480 -0.190763
10.606460 -0.128914
10.610474 -0.066747
10.614472 -0.015965
10.618473  0.015088
10.622456  0.028211
10.626445  0.033210
10.630466  0.039196
10.634476  0.049985
10.638473  0.066303
10.642472  0.087212
10.646473  0.106713
10.650466  0.112889
10.654464  0.096421
10.658466  0.059786
10.662471  0.013790
10.666473 -0.034008
10.670466 -0.082204
10.674481 -0.127155
10.678468 -0.158770
10.682471 -0.169812
10.686478 -0.168413
10.690468 -0.177810
10.694466 -0.220583
10.698466 -0.300353
10.702471 -0.396588
10.706473 -0.476329
10.710547 -0.513612
10.714895 -0.503074
10.718464 -0.458816
10.722483 -0.402938
10.726475 -0.356445
10.730467 -0.333472
10.734473 -0.332243
10.738643 -0.332764
10.742469 -0.314961
10.746464 -0.280332
10.750463 -0.247290
10.754478 -0.225416
10.758468 -0.202064
10.762471 -0.156010
10.766473 -0.080044
10.770473  0.013161
10.774473  0.107050
10.778476  0.199372
10.782483  0.301251
10.786467  0.419580
10.790458  0.544240
10.794461  0.653123
10.798463  0.726284
10.802447  0.754680
10.806439  0.741435
10.810914  0.700258
10.814469  0.647985
10.818471  0.590857
10.822481  0.519296
10.826587  0.419437
10.830466  0.287853
10.834473  0.136254
10.838467 -0.012498
10.842478 -0.133916
10.846450 -0.215933
10.850455 -0.267860
10.854765 -0.311436
10.858452 -0.360172
10.862451 -0.409785
10.866468 -0.448285
10.870464 -0.470584
10.874463 -0.482095
10.878465 -0.494150
10.882723 -0.523366
10.886467 -0.592248
10.890471 -0.715778
10.894557 -0.881979
10.898465 -1.053904
10.902450 -1.186368
10.906439 -1.222874
10.910441 -1.076014
10.914439 -0.635978
10.918442  0.166492
10.922444  1.269864
10.926442  2.434603
10.930718  3.307763
10.934469  3.595388
10.938464  3.229096
10.942469  2.388025
10.946464  1.362409
10.950472  0.390608
10.954464 -0.404844
10.958514 -0.984932
10.962481 -1.348567
10.966475 -1.519249
10.970465 -1.544687
10.974465 -1.484923
10.978465 -1.392759
10.982472 -1.298077
10.986476 -1.201915
10.990477 -1.086863
10.994546 -0.940877
10.998475 -0.772425
11.002480 -0.604671
11.006469 -0.463244
11.010464 -0.367219
11.014462 -0.318235
11.018462 -0.295389
11.022479 -0.269543
11.026475 -0.227084
11.030474 -0.178356
11.034465 -0.143534
11.038467 -0.132311
11.042470 -0.136703
11.046466 -0.142201
11.050478 -0.144510
11.054468 -0.151765
11.058587 -0.168721
11.062651 -0.182915
11.066470 -0.170409
11.070467 -0.115478
11.074468 -0.024366
11.078464  0.080266
11.082476  0.176839
11.086472  0.254388
11.090464  0.308570
11.094463  0.337238
11.098475  0.343229
11.102485  0.336707
11.106466  0.329812
11.110466  0.328793
11.114466  0.333221
11.118473  0.342142
11.122471  0.357478
11.126466  0.379802
11.130466  0.403659
11.134465  0.421060
11.138473  0.430258
11.142561  0.439202
11.146466  0.459246
11.150476  0.495083
11.154626  0.539951
11.158469  0.580117
11.162472  0.603729
11.166465  0.605625
11.170473  0.586809
11.174770  0.552662
11.178478  0.509497
11.182473  0.457943
11.186469  0.390403
11.190473  0.300475
11.194532  0.196700
11.198473  0.104258
11.202478  0.050176
11.206538  0.044852
11.210465  0.076791
11.214469  0.123649
11.218568  0.166473
11.222475  0.194853
11.226471  0.203248
11.230464  0.187425
11.234464  0.147106
11.238464  0.089178
11.242476  0.022422
11.246464 -0.052282
11.250466 -0.141582
11.258464 -0.244878
11.262724 -0.343135
11.266652 -0.411223
11.270456 -0.442713
11.274471 -0.453575
11.278547 -0.459144
11.282476 -0.458278
11.286467 -0.444992
11.290465 -0.425162
11.294467 -0.412311
11.298465 -0.410508
11.302483 -0.410053
11.306638 -0.401371
11.310464 -0.386611
11.314478 -0.373569
11.318468 -0.362301
11.322471 -0.343330
11.326478 -0.309435
11.330468 -0.265762
11.334466 -0.226150
11.338466 -0.201413
11.342471 -0.193823
11.346473 -0.200957
11.350473 -0.219892
11.354466 -0.246200
11.358473 -0.272668
11.362471 -0.293322
11.366466 -0.308830
11.370466 -0.324948
11.374466 -0.343741
11.378473 -0.357829
11.382501 -0.357631
11.386466 -0.346669
11.390466 -0.345004
11.394471 -0.370479
11.398458 -0.416595
11.402469 -0.454808
11.406475 -0.460937
11.410473 -0.436019
11.414596 -0.400721
11.418468 -0.374773
11.422473 -0.364808
11.426473 -0.367905
11.430473 -0.380383
11.434466 -0.399774
11.438473 -0.420321
11.442472 -0.432961
11.446466 -0.433471
11.450466 -0.426930
11.454473 -0.420200
11.458586 -0.413253
11.462597 -0.403065
11.466468 -0.394561
11.470466 -0.399410
11.474467 -0.417160
11.478660 -0.421198
11.482543 -0.376107
11.486612 -0.275322
11.490464 -0.150968
11.494450 -0.036206
11.498476  0.072677
11.502473  0.205636
11.506473  0.378843
11.510448  0.574956
11.514473  0.756519
11.518449  0.891752
11.522716  0.971381
11.526468  1.006207
11.530474  1.011365
11.534473  0.994957
11.538473  0.958780
11.542534  0.902061
11.546468  0.821278
11.550463  0.712003
11.554516  0.576936
11.558468  0.430841
11.562471  0.292096
11.566466  0.167069
11.570466  0.045960
11.574473 -0.082154
11.578466 -0.211427
11.582478 -0.321250
11.586474 -0.398324
11.590464 -0.452296
11.594448 -0.503664
11.598445 -0.558499
11.602466 -0.604368
11.606478 -0.635547
11.610475 -0.674771
11.614466 -0.758709
11.618473 -0.900002
11.622478 -1.068984
11.626466 -1.208629
11.630537 -1.250293
11.634462 -1.107924
11.638464 -0.679471
11.642477  0.105033
11.646471  1.199786
11.650464  2.388503
11.654471  3.328474
11.658464  3.704636
11.662548  3.403145
11.666471  2.564853
11.670463  1.474273
11.674464  0.392658
11.678465 -0.530055
11.682481 -1.241243
11.686475 -1.736519
11.690474 -2.030315
11.694467 -2.149236
11.698469 -2.131056
11.702470 -2.022519
11.706466 -1.875159
11.710477 -1.734492
11.714469 -1.624517
11.718465 -1.541953
11.722472 -1.468713
11.726465 -1.391901
11.730474 -1.313209
11.734473 -1.240769
11.738592 -1.173266
11.742474 -1.094041
11.746475 -0.985476
11.750466 -0.851544
11.754465 -0.719992
11.758565 -0.617117
11.762645 -0.544635
11.766462 -0.482858
11.770471 -0.410758
11.774532 -0.324280
11.778471 -0.244495
11.782469 -0.207831
11.786464 -0.232627
11.790463 -0.283187
11.794596 -0.280545
11.798464 -0.169897
11.802727  0.029292
11.806690  0.250229
11.810469  0.437194
11.814720  0.569295
11.818466  0.653298
11.822447  0.713612
11.826439  0.779467
11.830463  0.865143
11.834464  0.960042
11.838471  1.040856
11.842470  1.090969
11.846464  1.110420
11.850444  1.117419
11.854768  1.140302
11.858476  1.196289
11.862473  1.275247
11.866467  1.349365
11.870473  1.397405
11.874473  1.418418
11.878633  1.428230
11.882472  1.446448
11.886516  1.482985
11.890467  1.532586
11.894467  1.581776
11.898470  1.620229
11.902449  1.642512
11.906442  1.640522
11.910443  1.602666
11.914442  1.526571
11.918468  1.430189
11.922476  1.344698
11.926563  1.293523
11.930475  1.275657
11.934468  1.266662
11.938459  1.238263
11.942471  1.180898
11.946471  1.106780
11.950473  1.033738
11.954475  0.972371
11.958458  0.926564
11.962726  0.897231
11.966472  0.881793
11.970463  0.873897
11.974464  0.868703
11.978471  0.868817
11.982470  0.880509
11.986463  0.900906
11.990464  0.912650
11.994463  0.897152
11.998466  0.853138
12.002450  0.798317
12.006474  0.753091
12.010583  0.727177
12.014472  0.723179
12.018478  0.746351
12.022481  0.801674
12.026473  0.878880
12.030473  0.947968
12.034468  0.979988
12.038442  0.975237
12.042448  0.966966
12.046481  0.992487
12.050467  1.058206
12.054446  1.134995
12.058443  1.187192
12.062623  1.199251
12.066442  1.176009
12.070443  1.131884
12.074444  1.087489
12.078502  1.067341
12.082474  1.087125
12.086470  1.137832
12.090461  1.186700
12.094463  1.202946
12.098512  1.187958
12.102478  1.176152
12.106461  1.201479
12.110443  1.266080
12.114547  1.343480
12.118469  1.407211
12.122460  1.451557
12.126540  1.485400
12.130465  1.513230
12.134476  1.528636
12.138468  1.523326
12.142471  1.496451
12.146466  1.454849
12.150466  1.407657
12.154473  1.363752
12.158466  1.332855
12.162471  1.322160
12.166468  1.327787
12.170466  1.333831
12.174473  1.326752
12.178466  1.314602
12.182471  1.330652
12.186526  1.409366
12.190470  1.552064
12.194459  1.721727
12.198474  1.876256
12.202470  1.999478
12.206466  2.097928
12.210640  2.181562
12.214464  2.258262
12.218727  2.339458
12.222510  2.435431
12.226468  2.537738
12.230475  2.611412
12.234466  2.614231
12.238473  2.528345
12.242473  2.372236
12.246473  2.182715
12.250473  1.989967
12.254467  1.811015
12.258473  1.657930
12.262479  1.539505
12.266469  1.452722
12.270465  1.380929
12.274640  1.306043
12.278463  1.221663
12.282471  1.133825
12.286471  1.051906
12.290463  0.982101
12.294471  0.928988
12.298466  0.896452
12.302470  0.879326
12.306464  0.854159
12.310464  0.787032
12.314471  0.659400
12.318471  0.488001
12.322470  0.319764
12.326477  0.217026
12.330632  0.259551
12.334465  0.552117
12.338478  1.195135
12.342473  2.205269
12.346466  3.434548
12.350466  4.566724
12.354466  5.235206
12.358473  5.212895
12.362479  4.538039
12.366466  3.471171
12.370473  2.326125
12.374467  1.320760
12.378466  0.540015
12.382472 -0.015516
12.386466 -0.370920
12.390473 -0.548602
12.394465 -0.565677
12.398473 -0.442092
12.402472 -0.212416
12.406529  0.067987
12.410468  0.337227
12.414445  0.557601
12.418472  0.731032
12.422454  0.879221
12.426461  1.011541
12.430471  1.117876
12.434466  1.189816
12.438471  1.239018
12.442453  1.290144
12.446471  1.359475
12.450473  1.443685
12.454458  1.528398
12.458458  1.605311
12.462469  1.678536
12.466456  1.753363
12.470469  1.822370
12.474462  1.868116
12.478469  1.880672
12.482474  1.868153
12.486462  1.848907
12.490469  1.839769
12.494469  1.854111
12.498463  1.902568
12.502577  1.987444
12.506469  2.097386
12.510515  2.212418
12.514611  2.316662
12.518530  2.405449
12.522475  2.479548
12.526464  2.535907
12.530468  2.567812
12.534476  2.571967
12.538465  2.551221
12.542472  2.510935
12.546465  2.456122
12.550467  2.393038
12.554473  2.330934
12.558473  2.279676
12.562471  2.244726
12.566466  2.223484
12.570466  2.206921
12.574473  2.187351
12.578473  2.165092
12.582547  2.144646
12.586473  2.123213
12.590466  2.087205
12.594466  2.024226
12.598637  1.936091
12.602473  1.836295
12.606466  1.736920
12.610466  1.642271
12.614479  1.554382
12.618468  1.478687
12.622481  1.419010
12.626458  1.368170
12.630595  1.309964
12.634475  1.234271
12.638564  1.147711
12.642475  1.066057
12.646464  0.996611
12.650471  0.930620
12.654585  0.854221
12.658464  0.764761
12.662476  0.673347
12.666592  0.593063
12.670464  0.529692
12.674478  0.483248
12.678477  0.451120
12.682471  0.425246
12.686473  0.389871
12.690475  0.331455
12.694448  0.258813
12.698478  0.209424
12.702483  0.220625
12.706471  0.288139
12.710466  0.362207
12.714445  0.389543
12.718472  0.353904
12.722454  0.277467
12.726479  0.193961
12.730466  0.126058
12.734478  0.082052
12.738475  0.061631
12.742482  0.056758
12.746466  0.050005
12.750465  0.021927
12.754466 -0.034053
12.758478 -0.106145
12.762473 -0.177038
12.766475 -0.241239
12.770466 -0.306915
12.774653 -0.381327
12.778476 -0.457906
12.782454 -0.520170
12.786472 -0.558694
12.790434 -0.581288
12.794587 -0.601731
12.798470 -0.620278
12.802520 -0.625133
12.806471 -0.615301
12.810464 -0.608989
12.814471 -0.622014
12.818473 -0.648282
12.822477 -0.670333
12.826466 -0.683934
12.830479 -0.705183
12.834468 -0.753604
12.838648 -0.832010
12.842475 -0.925182
12.846463 -1.016957
12.850471 -1.104060
12.854464 -1.190852
12.858509 -1.276751
12.862483 -1.357723
12.866468 -1.438390
12.870467 -1.530817
12.874473 -1.634072
12.878473 -1.720420
12.882483 -1.753103
12.886468 -1.723174
12.890608 -1.665102
12.894471 -1.631992
12.898472 -1.653954
12.902467 -1.713725
12.906472 -1.753046
12.910465 -1.705676
12.914472 -1.545468
12.918479 -1.321224
12.922473 -1.134437
12.926465 -1.062272
12.930475 -1.104832
12.934465 -1.210736
12.938466 -1.335648
12.942478 -1.468708
12.946590 -1.621025
12.950461 -1.803637
12.954458 -2.013210
12.958518 -2.231729
12.962450 -2.440288
12.966464 -2.636931
12.970463 -2.839739
12.974461 -3.068478
12.978462 -3.323954
12.982467 -3.586697
12.986470 -3.829225
12.990469 -4.022248
12.994470 -4.137256
12.998506 -4.161633
13.002472 -4.117791
13.006589 -4.061479
13.010467 -4.054602
13.014469 -4.131137
13.018568 -4.281432
13.022476 -4.467688
13.026464 -4.651947
13.030463 -4.801905
13.034464 -4.866395
13.038726 -4.752655
13.042478 -4.346920
13.046471 -3.586769
13.050465 -2.546265
13.054471 -1.470764
13.058464 -0.711024
13.062644 -0.562122
13.066464 -1.099651
13.070514 -2.141450
13.074474 -3.370169
13.078445 -4.509841
13.082623 -5.422212
13.086471 -6.089081
13.090464 -6.541128
13.094464 -6.804720
13.098466 -6.895920
13.102484 -6.844010
13.106475 -6.706077
13.110474 -6.550777
13.114465 -6.425068
13.118474 -6.337799
13.122483 -6.277017
13.126473 -6.238960
13.130466 -6.232912
13.134466 -6.260245
13.138667 -6.301093
13.142480 -6.328353
13.146474 -6.330738
13.150473 -6.317013
13.154467 -6.300126
13.158465 -6.284997
13.162483 -6.273345
13.166468 -6.270725
13.170466 -6.280253
13.174478 -6.293169
13.178475 -6.294896
13.182472 -6.283857
13.186473 -6.280982
13.190473 -6.314801
13.194466 -6.393032
13.198473 -6.490157
13.202481 -6.566696
13.206469 -6.600268
13.210603 -6.595804
13.214534 -6.570567
13.218471 -6.537859
13.222476 -6.505218
13.226473 -6.478762
13.230466 -6.460914
13.234473 -6.444068
13.238473 -6.412568
13.242472 -6.357341
13.246654 -6.291417
13.250466 -6.248294
13.254464 -6.258803
13.258471 -6.324865
13.262477 -6.415753
13.266475 -6.492940
13.270457 -6.540375
13.274478 -6.570630
13.278468 -6.603607
13.282740 -6.643097
13.286464 -6.673418
13.290471 -6.673597
13.294471 -6.634898
13.298456 -6.569204
13.302476 -6.497224
13.306599 -6.424249
13.310472 -6.335831
13.314461 -6.225131
13.318468 -6.116597
13.322444 -6.052642
13.326456 -6.057682
13.330440 -6.118108
13.334593 -6.196946
13.338472 -6.270150
13.342470 -6.353120
13.346469 -6.488880
13.350451 -6.698605
13.354631 -6.940733
13.358465 -7.130279
13.362474 -7.205229
13.366607 -7.174495
13.370467 -7.109061
13.374466 -7.089619
13.378476 -7.150023
13.382473 -7.259785
13.386466 -7.360320
13.390466 -7.419360
13.394466 -7.451800
13.398475 -7.494335
13.402474 -7.567751
13.406469 -7.661657
13.410464 -7.746349
13.414597 -7.807009
13.418468 -7.893337
13.422775 -8.132949
13.426471 -8.620617
13.430464 -9.183848
13.434464 -9.229248
13.438464 -7.977028
13.442470 -5.107348
13.446471 -1.268421
13.450478  2.216950
13.454534  4.303468
13.458479  4.892445
13.462593  4.630742
13.466475  4.239131
13.470578  4.071454
13.474466  4.120575
13.478473  4.240790
13.482472  4.325767
13.486465  4.355348
13.490467  4.358440
13.494473  4.365547
13.498468  4.388009
13.502463  4.421852
13.507313  4.459357
13.510468  4.496294
13.514464  4.532651
13.518464  4.570191
13.522474  4.610280
13.526468  4.653249
13.530467  4.698800
13.534471  4.746584
13.538463  4.796477
13.542471  4.848544
13.546464  4.902904
13.550464  4.959638
13.554475  5.018774
13.558464  5.080320
13.562470  5.144284
13.566503  5.210688
13.570567  5.279562
13.574473  5.350938
13.578467  5.424843
13.582485  5.501304
13.586477  5.580346
13.590464  5.661995
13.594489  5.746277
13.598686  5.833220
13.602474  5.922851
13.606445  6.015195
13.610454  6.110281
13.614463  6.208134
13.618455  6.308781
13.622473  6.412250
13.626444  6.518567
13.630464  6.627759
13.634464  6.739855
13.638471  6.854879
13.642476  6.972858
13.646493  7.093817
13.650468  7.217785
13.654466  7.344797
13.658566  7.474885
13.662469  7.608074
13.666475  7.744368
13.670476  7.883764
13.674464  8.026282
13.678466  8.172015
13.682497  8.321125
13.686472  8.473731
13.690463  8.629702
13.694464  8.788554
13.698473  8.949758
13.702479  9.113542
13.706471  9.281651
13.710674  9.456787
13.714463  9.639763
13.718464  9.825600
13.722469 10.003205
13.726464 10.164174
13.730471 10.319731
13.734648 10.510525
13.738478 10.783346
13.742466 11.122941
13.746690 11.377047
13.750464 11.264232
13.754463 10.522050
13.758472  9.106766
13.762469  7.253060
13.766548  5.324640
13.770476  3.607248
13.774475  2.221818
13.778478  1.168237
13.782475  0.398797
13.786460 -0.140300
13.790466 -0.495529
13.794460 -0.709042
13.798467 -0.832618
13.802483 -0.936681
13.806468 -1.093177
13.810731 -1.330357
13.822477 -1.601201
13.826594 -1.816722
13.830471 -1.919998
13.834517 -1.918493
13.838473 -1.852716
13.842478 -1.757823
13.846466 -1.657056
13.850473 -1.568752
13.854466 -1.501858
13.858466 -1.447736
13.862478 -1.388190
13.866631 -1.316412
13.870473 -1.246417
13.874466 -1.197165
13.878616 -1.167798
13.882476  1.495312
13.886464  1.270885
13.890471  1.062567
13.894471  0.889724
13.898466  0.763760
13.902471  0.673354
13.906572  0.586807
13.910446  0.473575
13.914441  0.328777
13.918500  0.182979
13.922772  0.083907
13.926684  0.054830
13.930460  0.066342
13.934642  0.055576
13.938465 -0.025942
13.942479 -0.184444
13.946472 -0.391128
13.950466 -0.603485
13.954473 -0.786104
13.958466 -0.928756
13.962474 -1.050447
13.966474 -1.179997
13.970465 -1.330272
13.974472 -1.491333
13.978469 -1.644444
13.982469 -1.781720
13.986478 -1.916216
13.990468 -2.071474
13.994466 -2.256195
13.998473 -2.451607
14.002659 -2.629400
14.006471 -2.780053
14.010471 -2.917287
14.014471 -3.055666
14.018471 -3.191527
14.022478 -3.309003
14.026478 -3.401323
14.030468 -3.483153
14.034475 -3.581365
14.038456 -3.713322
14.046464 -3.874128
14.050458 -4.043936
14.054474 -4.204426
14.058474 -4.347360
14.062651 -4.472745
14.066471 -4.584268
14.070466 -4.684931
14.074467 -4.772943
14.078478 -4.841622
14.082473 -4.885368
14.086466 -4.906452
14.090478 -4.914425
14.094468 -4.917265
14.098466 -4.915081
14.102472 -4.906981
14.106473 -4.902921
14.110466 -4.918084
14.114466 -4.947771
14.118517 -4.956888
14.122594 -4.910160
14.126465 -4.814020
14.130471 -4.718573
14.134464 -4.675152
14.138566 -4.694915
14.142485 -4.746750
14.146468 -4.789459
14.150477 -4.803301
14.154464 -4.794359
14.158465 -4.777454
14.162563 -4.761300
14.166469 -4.747187
14.170464 -4.732668
14.174471 -4.711128
14.178476 -4.672043
14.182603 -4.609523
14.186468 -4.530429
14.190473 -4.447942
14.194473 -4.368561
14.198476 -4.291585
14.202478 -4.216977
14.206469 -4.145067
14.210588 -4.072236
14.214472 -3.994591
14.218471 -3.913527
14.222689 -3.836719
14.226465 -3.779961
14.230478 -3.764174
14.234468 -3.798906
14.238466 -3.868762
14.242480 -3.941685
14.246508 -3.989327
14.250467 -3.998055
14.254532 -3.965993
14.258513 -3.897714
14.262471 -3.805111
14.266468 -3.709141
14.270479 -3.631053
14.274468 -3.572629
14.278466 -3.505260
14.282478 -3.388991
14.286474 -3.210707
14.290465 -3.001486
14.294466 -2.811870
14.298467 -2.671845
14.302472 -2.577512
14.306476 -2.511030
14.310468 -2.463744
14.314466 -2.438651
14.318478 -2.438869
14.322677 -2.460171
14.326473 -2.493772
14.330473 -2.534781
14.334476 -2.587688
14.338468 -2.660921
14.342471 -2.755380
14.346478 -2.861647
14.350468 -2.966753
14.354466 -3.057756
14.358473 -3.121106
14.362675 -3.149153
14.366549 -3.151963
14.370458 -3.154735
14.374476 -3.172928
14.378636 -3.190634
14.382478 -3.176529
14.386575 -3.128506
14.390474 -3.090581
14.394465 -3.111975
14.398749 -3.194728
14.402474 -3.289582
14.406465 -3.330157
14.410578 -3.248847
14.414593 -2.959478
14.418473 -2.356945
14.422479 -1.378470
14.426531 -0.098774
14.430461  1.221820
14.434476  2.201265
14.438468  2.503478
14.442471  2.011326
14.446478  0.884344
14.450477 -0.526527
14.458473 -1.836344
14.462766 -2.775387
14.466469 -3.268202
14.470728 -3.404334
14.474474 -3.334065
14.478466 -3.175742
14.482475 -2.987269
14.486463 -2.788115
14.490466 -2.588551
14.494528 -2.397885
14.498466 -2.216197
14.502476 -2.031838
14.506500 -1.836801
14.510465 -1.643866
14.514464 -1.476674
14.518471 -1.338323
14.522524 -1.204589
14.526471 -1.057848
14.530464 -0.913523
14.534463 -0.801283
14.538465 -0.731683
14.542476 -0.692960
14.546465 -0.672480
14.550463 -0.667885
14.554464 -0.676141
14.558463 -0.681645
14.562477 -0.664343
14.566465 -0.619308
14.570464 -0.560979
14.574463 -0.503805
14.578472 -0.442963
14.582478 -0.360863
14.586462 -0.252538
14.590630 -0.137422
14.594463 -0.040687
14.598464  0.034163
14.602472  0.107917
14.606470  0.201101
14.610465  0.312312
14.614464  0.422776
14.618464  0.517964
14.622470  0.600008
14.626464  0.680159
14.630444  0.765432
14.634445  0.855395
14.638462  0.947809
14.642448  1.042401
14.646440  1.137954
14.650552  1.227874
14.654469  1.302056
14.658463  1.355020
14.662470  1.390568
14.666463  1.415895
14.670464  1.432321
14.674471  1.434777
14.678464  1.419938
14.682481  1.391834
14.686468  1.358891
14.690473  1.328362
14.694474  1.305363
14.698473  1.293214
14.702604  1.289071
14.706475  1.281043
14.710473  1.255744
14.714460  1.209916
14.718465  1.153395
14.722479  1.100540
14.726465  1.057649
14.730474  1.019415
14.734474  0.979635
14.738473  0.942300
14.742481  0.918619
14.746468  0.916667
14.750592  0.936637
14.754665  0.972187
14.758468  1.015103
14.762587  1.060301
14.766478  1.105095
14.770475  1.146094
14.774470  1.181721
14.778480  1.215213
14.782480  1.250702
14.786465  1.288776
14.790473  1.329290
14.794670  1.375029
14.798454  1.424134
14.802455  1.454853
14.806477  1.427887
14.810473  1.327180
14.814473  1.209601
14.818475  1.185907
14.822440  1.317064
14.826728  1.542986
14.830472  1.740446
14.834466  1.834406
14.838460  1.837464
14.842476  1.806537
14.846464  1.784938
14.850471  1.780337
14.854472  1.780568
14.858463  1.777547
14.862478  1.773705
14.866467  1.773192
14.870458  1.777287
14.874478  1.790510
14.878509  1.822758
14.882478  1.877566
14.886475  1.940162
14.890439  1.984355
14.894471  1.994843
14.898464  1.981066
14.902474  1.966985
14.906470  1.968145
14.910698  1.980144
14.914469  1.987317
14.918466  1.978732
14.922472  1.954075
14.926466  1.915936
14.930473  1.862629
14.934466  1.793946
14.938473  1.720456
14.942478  1.659077
14.946466  1.617066
14.950473  1.583388
14.954466  1.539155
14.958465  1.477538
14.962472  1.411428
14.966476  1.361059
14.970475  1.337986
14.974466  1.342501
14.978468  1.370915
14.982463  1.418845
14.986736  1.478606
14.990468  1.542029
14.994464  1.611759
14.998471  1.705253
15.002469  1.839563
15.006458  2.011320
15.010593  2.194581
15.014473  2.356853
15.018471  2.475967
15.022475  2.545641
15.026465  2.569566
15.030474  2.552891
15.034497  2.500834
15.038474  2.421647
15.042478  2.323029
15.046478  2.204182
15.050468  2.057602
15.054465  1.882196
15.058466  1.692063
15.062652  1.509237
15.066470  1.347510
15.070467  1.205461
15.074471  1.076279
15.078464  0.960694
15.082470  0.865637
15.086464  0.791999
15.090471  0.730336
15.094476  0.672020
15.098473  0.622972
15.102476  0.601998
15.106525  0.618238
15.110471  0.646562
15.114813  0.634627
15.118467  0.545242
15.122516  0.388957
15.126945  0.214079
15.130464  0.084015
15.134466  0.082709
15.138478  0.328385
15.142481  0.939795
15.146473  1.946131
15.150460  3.202619
15.154476  4.388918
15.158468  5.122699
15.162478  5.144116
15.166469  4.453616
15.170458  3.297199
15.174466  2.016911
15.178457  0.890816
15.182477  0.059934
15.186458 -0.457361
15.190464 -0.713852
15.194457 -0.785573
15.198610 -0.743753
15.202469 -0.644926
15.206471 -0.528993
15.210471 -0.418380
15.214473 -0.319408
15.218469 -0.228783
15.222469 -0.143628
15.226464 -0.068027
15.230463 -0.009410
15.234464  0.032091
15.238469  0.068761
15.242470  0.116508
15.246476  0.179306
15.250468  0.244585
15.254466  0.297499
15.258466  0.338300
15.262478  0.381053
15.266668  0.436247
15.270473  0.500388
15.274466  0.562775
15.278473  0.617051
15.282472  0.664074
15.286466  0.705926
15.290684  0.740144
15.294472  0.762216
15.298469  0.773598
15.302483  0.784358
15.306468  0.806122
15.310587  0.843337
15.314542  0.892081
15.318464  0.945994
15.322470  1.001034
15.326506  1.053935
15.330472  1.100321
15.334473  1.139003
15.338473  1.174993
15.342481  1.212163
15.346638  1.244255
15.350471  1.258665
15.354471  1.250154
15.358464  1.228264
15.362470  1.209286
15.366464  1.200141
15.370464  1.191193
15.374471  1.166953
15.378466  1.122234
15.382469  1.064303
15.386538  1.002094
15.390468  0.941482
15.394476  0.892070
15.398470  0.867921
15.402473  0.872366
15.406471  0.885694
15.410472  0.876811
15.414446  0.829189
15.418471  0.752112
15.422476  0.665281
15.426473  0.575610
15.430466  0.473859
15.434682  0.354311
15.438478  0.230903
15.442663  0.127021
15.446471  0.050427
15.450464 -0.014775
15.454464 -0.087806
15.458464 -0.167468
15.462737 -0.235098
15.466466 -0.279801
15.470560 -0.312361
15.474472 -0.350738
15.478467 -0.398643
15.482471 -0.445494
15.486725 -0.485081
15.490659 -0.525873
15.494463 -0.579061
15.498472 -0.641419
15.502476 -0.697167
15.506474 -0.737086
15.510464 -0.769750
15.514465 -0.810531
15.518463 -0.863128
15.522477 -0.916708
15.526464 -0.959538
15.530464 -0.989088
15.534464 -1.007407
15.538464 -1.013148
15.542476 -1.004375
15.546465 -0.987660
15.550471 -0.977347
15.554446 -0.981615
15.558473 -0.991748
15.562476 -0.990278
15.566464 -0.971798
15.570478 -0.952398
15.574468 -0.953551
15.578466 -0.977253
15.582483 -1.003533
15.586469 -1.014840
15.590466 -1.015706
15.594466 -1.022989
15.598467 -1.042887
15.602480 -1.065711
15.606467 -1.081263
15.610460 -1.090593
15.614668 -1.099336
15.618492 -1.105381
15.622472 -1.099523
15.626473 -1.077886
15.630466 -1.048492
15.634465 -1.022195
15.638474 -1.000422
15.642472 -0.977902
15.646468 -0.956481
15.650465 -0.948027
15.654466 -0.959087
15.658473 -0.976586
15.662472 -0.975382
15.666465 -0.942933
15.670478 -0.893672
15.674470 -0.855331
15.678467 -0.842872
15.682471 -0.848642
15.686466 -0.854147
15.690473 -0.844934
15.694530 -0.813516
15.698521 -0.753379
15.702476 -0.656445
15.706596 -0.519401
15.710465 -0.351204
15.714575 -0.171367
15.718472  0.000810
15.722451  0.155194
15.726443  0.290383
15.730465  0.409650
15.734653  0.521509
15.738467  0.640304
15.742480  0.776389
15.746473  0.920369
15.750474  1.041778
15.754465  1.110683
15.758473  1.120606
15.762483  1.086810
15.766468  1.025342
15.770466  0.940137
15.774475  0.829079
15.778467  0.694071
15.782472  0.539680
15.786465  0.365485
15.790467  0.168927
15.794473 -0.040418
15.798466 -0.235240
15.802471 -0.386444
15.806473 -0.486050
15.810471 -0.551390
15.814475 -0.605880
15.818475 -0.659297
15.822471 -0.708542
15.826466 -0.752551
15.830466 -0.798829
15.834473 -0.852535
15.838466 -0.905924
15.842519 -0.951455
15.846471 -1.007429
15.850467 -1.113880
15.854465 -1.288490
15.858467 -1.486321
15.862476 -1.599135
15.866464 -1.486537
15.870528 -1.021445
15.874655 -0.144107
15.878464  1.080347
15.882478  2.419485
15.886471  3.497439
15.890458  3.939169
15.894463  3.582518
15.898476  2.585596
15.902473  1.324742
15.906473  0.177326
15.910475 -0.637271
15.914516 -1.081032
15.918510 -1.227759
15.922473 -1.183781
15.926464 -1.046176
15.930467 -0.889104
15.934468 -0.753666
15.938518 -0.643399
15.942589 -0.539317
15.946508 -0.426409
15.950599 -0.307452
15.954473 -0.194959
15.958474 -0.096111
15.962901 -0.009498
15.966567  0.065445
15.970463  0.121993
15.974471  0.152635
15.978465  0.158762
15.982468  0.148305
15.986464  0.124404
15.990463  0.084503
15.994468  0.036630
15.998471  0.011408
16.002470  0.044415
16.006467  0.139783
16.010590  0.260447
16.014460  0.362228
16.018452  0.429780
16.022475  0.475398
16.026463  0.516043
16.030474  0.561422
16.034602  0.615696
16.038460  0.676902
16.042477  0.733559
16.046464  0.770137
16.050463  0.780309
16.054464  0.773367
16.058462  0.766264
16.062646  0.769455
16.066471  0.780034
16.070466  0.788282
16.074466  0.791469
16.078467  0.800367
16.082476  0.828845
16.086473  0.875047
16.090466  0.916011
16.094474  0.926013
16.098466  0.900966
16.102471  0.863581
16.106466  0.846821
16.110604  0.872150
16.114469  0.937283
16.118466  1.020218
16.122479  1.093316
16.126466  1.131636
16.130475  1.114670
16.134473  1.036527
16.138466  0.920529
16.142481  0.809331
16.146478  0.725855
16.150468  0.650196
16.154466  0.546389
16.158466  0.404724
16.162470  0.247204
16.166471  0.098156
16.170464 -0.039067
16.174464 -0.176879
16.178464 -0.322538
16.182469 -0.465852
16.186471 -0.585580
16.190518 -0.665462
16.194470 -0.705418
16.198463 -0.720757
16.202471 -0.732890
16.206464 -0.760101
16.210725 -0.811825
16.214463 -0.885278
16.218471 -0.966556
16.222469 -1.039832
16.226464 -1.099549
16.230471 -1.151829
16.234464 -1.199889
16.238471 -1.229249
16.242632 -1.216041
16.246471 -1.156588
16.250471 -1.080942
16.254464 -1.025713
16.258464 -0.998198
16.262483 -0.977334
16.266468 -0.944810
16.270466 -0.903992
16.274466 -0.869878
16.278473 -0.851142
16.282472 -0.845419
16.286466 -0.844897
16.290473 -0.839645
16.294540 -0.818317
16.298587 -0.773133
16.302480 -0.706821
16.306718 -0.633116
16.310525 -0.567245
16.314440 -0.512432
16.318465 -0.456838
16.322476 -0.386744
16.326831 -0.302715
16.330777 -0.222841
16.334529 -0.169542
16.338471 -0.150577
16.342469 -0.153461
16.346484 -0.160268
16.350472 -0.164629
16.354585 -0.172050
16.358465 -0.190237
16.362476 -0.225918
16.366471 -0.285729
16.370462 -0.368048
16.378468 -0.451980
16.382478 -0.505051
16.386667 -0.510117
16.390474 -0.482444
16.394473 -0.455208
16.398466 -0.448206
16.402471 -0.453056
16.406466 -0.446944
16.410478 -0.413972
16.414468 -0.350223
16.418473 -0.256784
16.422599 -0.139575
16.426687 -0.014958
16.430465  0.096411
16.434471  0.188502
16.438462  0.278830
16.442521  0.389861
16.446471  0.518487
16.450466  0.630112
16.454466  0.687363
16.458465  0.680398
16.462479  0.627279
16.466473  0.551119
16.470474  0.462071
16.474604  0.358910
16.478466  0.240994
16.482483  0.113836
16.486468 -0.015594
16.490465 -0.143289
16.494474 -0.264068
16.498465 -0.366329
16.502478 -0.438788
16.506487 -0.485553
16.510643 -0.528786
16.514471 -0.589823
16.518472 -0.668791
16.522599 -0.747486
16.526471 -0.810709
16.530465 -0.859429
16.534478 -0.905455
16.538468 -0.963246
16.542471 -1.049962
16.546478 -1.183668
16.550663 -1.369334
16.554471 -1.577778
16.558464 -1.728403
16.562476 -1.688207
16.566477 -1.304489
16.570468 -0.476588
16.574473  0.759097
16.578476  2.177985
16.582609  3.399961
16.586466  4.032842
16.590464  3.874096
16.594446  3.027784
16.598463  1.831359
16.602658  0.653547
16.606586 -0.272051
16.610461 -0.879195
16.614719 -1.201679
16.618722 -1.301565
16.622473 -1.245178
16.626459 -1.106109
16.630472 -0.955720
16.634463 -0.838796
16.638472 -0.761684
16.642476 -0.707561
16.646464 -0.662334
16.650464 -0.624869
16.654464 -0.596802
16.658464 -0.571331
16.662476 -0.537849
16.666464 -0.496748
16.670472 -0.463581
16.674471 -0.453208
16.678547 -0.461906
16.682465 -0.470917
16.686476 -0.466335
16.690468 -0.448905
16.694466 -0.424416
16.698478 -0.392511
16.702473 -0.350304
16.706475 -0.302601
16.710473 -0.259862
16.714475 -0.223956
16.718465 -0.181966
16.722472 -0.119535
16.726465 -0.039188
16.730474  0.040024
16.734597  0.103339
16.738462  0.155890
16.742476  0.212481
16.746464  0.274917
16.750463  0.327241
16.754464  0.356086
16.758464  0.370451
16.762615  0.394685
16.766473  0.442409
16.770467  0.504332
16.774466  0.563887
16.778466  0.617471
16.782471  0.672630
16.786473  0.729747
16.790466  0.774953
16.794466  0.795680
16.798466  0.798451
16.802470  0.803649
16.806474  0.822183
16.810465  0.843817
16.814466  0.851737
16.818465  0.843433
16.822481  0.830912
16.826468  0.821631
16.830479  0.805792
16.834471  0.765956
16.838471  0.696728
16.842476  0.609946
16.846472  0.518899
16.850463  0.422668
16.854464  0.311651
16.858463  0.185836
16.862470  0.059695
16.866471 -0.053339
16.870471 -0.154863
16.874464 -0.254471
16.878471 -0.353158
16.882645 -0.442481
16.886464 -0.519261
16.890464 -0.589683
16.894476 -0.653578
16.898465 -0.693506
16.902470 -0.688628
16.906470 -0.637673
16.910462 -0.563540
16.914449 -0.496524
16.918469 -0.454758
16.922451 -0.438477
16.926892 -0.439678
16.930465 -0.453207
16.934464 -0.475891
16.939142 -0.500145
16.942471 -0.517505
16.946466 -0.529250
16.950466 -0.546214
16.954465 -0.574140
16.958719 -0.602979
16.962477 -0.615331
16.966457 -0.604829
16.970464 -0.582159
16.974478 -0.561387
16.978475 -0.543549
16.982479 -0.518358
16.986657 -0.481336
16.990464 -0.442461
16.994472 -0.415327
16.998466 -0.403213
17.002469 -0.399371
17.006464 -0.397215
17.010464 -0.394979
17.018489 -0.391472
17.022644 -0.383907
17.026471 -0.372514
17.030464 -0.362377
17.034603 -0.357110
17.038470 -0.354024
17.042523 -0.349716
17.046585 -0.348744
17.050636 -0.360629
17.054472 -0.384564
17.058467 -0.400368
17.062759 -0.381532
17.066464 -0.319302
17.070458 -0.229803
17.074467 -0.136159
17.078471 -0.048361
17.082470  0.037310
17.086471  0.124644
17.090471  0.210628
17.094478  0.293464
17.098468  0.381679
17.102480  0.488222
17.106540  0.612289
17.110473  0.728530
17.114466  0.799369
17.118466  0.802081
17.122471  0.743277
17.126692  0.646043
17.130464  0.527065
17.134464  0.390047
17.138478  0.235841
17.142474  0.069090
17.146459 -0.105184
17.150478 -0.282572
17.154475 -0.452930
17.158466 -0.598479
17.162478 -0.704592
17.166466 -0.773058
17.170465 -0.820821
17.174467 -0.863492
17.178465 -0.902699
17.182479 -0.931750
17.186466 -0.950294
17.190445 -0.969093
17.194448 -1.002254
17.198595 -1.059423
17.202501 -1.145232
17.206594 -1.260907
17.210608 -1.397088
17.214468 -1.510971
17.218705 -1.501578
17.222449 -1.220573
17.226444 -0.543058
17.230471  0.530103
17.234448  1.807414
17.238443  2.940323
17.242478  3.565454
17.246449  3.486937
17.250521  2.773253
17.254476  1.692764
17.258473  0.551256
17.262473 -0.435300
17.266466 -1.170908
17.270478 -1.645898
17.274468 -1.892344
17.278466 -1.955750
17.282471 -1.887555
17.286476 -1.746744
17.290468 -1.591659
17.294466 -1.459904
17.298466 -1.357531
17.302480 -1.271552
17.306473 -1.190165
17.310466 -1.108197
17.314494 -1.021722
17.318474 -0.930728
17.322465 -0.846854
17.326466 -0.788279
17.330465 -0.762838
17.334474 -0.757759
17.338464 -0.746925
17.342484 -0.710061
17.346469 -0.647469
17.350465 -0.576462
17.354478 -0.512489
17.358468 -0.453920
17.362471 -0.386569
17.366466 -0.302565
17.370478 -0.210875
17.374469 -0.126679
17.378476 -0.053904
17.382465  0.016649
17.386478  0.093504
17.390589  0.176358
17.394762  0.263958
17.398550  0.362537
17.402477  0.478822
17.406523  0.605847
17.410476  0.721404
17.414476  0.803350
17.418466  0.846172
17.422471  0.861839
17.426466  0.865558
17.430473  0.863846
17.434468  0.857130
17.438478  0.849093
17.442473  0.847863
17.446475  0.857550
17.450463  0.872160
17.454568  0.880624
17.458475  0.877001
17.462471  0.862387
17.466466  0.836619
17.470466  0.794001
17.474466  0.731875
17.478473  0.659458
17.482471  0.590193
17.486473  0.524833
17.490473  0.451850
17.494534  0.370620
17.498442  0.303065
17.502471  0.268057
17.506445  0.251441
17.510461  0.219178
17.514470  0.159387
17.518467  0.096612
17.522457  0.060388
17.526473  0.049396
17.530494  0.032868
17.534471 -0.018252
17.538471 -0.106682
17.542470 -0.210744
17.546593 -0.303787
17.550471 -0.369400
17.554471 -0.402473
17.558471 -0.405342
17.562472 -0.388975
17.566643 -0.374428
17.570472 -0.383571
17.574472 -0.421095
17.578465 -0.466500
17.582483 -0.489231
17.586468 -0.474370
17.590466 -0.433118
17.594473 -0.389538
17.598466 -0.360191
17.602602 -0.346958
17.606471 -0.345056
17.610464 -0.351406
17.614464 -0.362670
17.618464 -0.370102
17.622469 -0.363530
17.626471 -0.341749
17.630463 -0.313841
17.634464 -0.286396
17.638671 -0.253301
17.642475 -0.205126
17.646466 -0.148256
17.650471 -0.105910
17.654473 -0.094091
17.658477 -0.100968
17.662606 -0.097317
17.666670 -0.066349
17.670468 -0.017825
17.674473  0.026487
17.678473  0.055553
17.682471  0.074991
17.686466  0.094213
17.690466  0.114749
17.694466  0.134369
17.698475  0.156870
17.702471  0.190022
17.706466  0.235100
17.710466  0.286613
17.714466  0.345689
17.718473  0.428118
17.722478  0.551784
17.726466  0.714531
17.730479  0.889026
17.734468  1.043723
17.738465  1.167198
17.742478  1.267385
17.746473  1.347690
17.750466  1.391893
17.754476  1.378293
17.758552  1.303822
17.762480  1.187060
17.766473  1.050478
17.770473  0.906381
17.774465  0.758023
17.778464  0.607230
17.782477  0.457035
17.786468  0.308927
17.790469  0.166745
17.794601  0.048544
17.798465 -0.018080
17.802476 -0.026615
17.806506 -0.007915
17.810473  0.001102
17.814471 -0.001260
17.818465  0.010731
17.822715  0.041552
17.826463  0.048865
17.830471 -0.025632
17.834464 -0.201785
17.838471 -0.436287
17.842477 -0.643877
17.846599 -0.731318
17.850467 -0.607172
17.854478 -0.179250
17.858476  0.614866
17.862471  1.732649
17.866476  2.962532
17.870468  3.955271
17.874465  4.378033
17.878465  4.100337
17.882482  3.260294
17.886464  2.154045
17.890474  1.055529
17.894473  0.116903
17.898467 -0.613279
17.902485 -1.130183
17.906641 -1.443453
17.910464 -1.579163
17.914540 -1.578448
17.918471 -1.484622
17.922470 -1.337243
17.926471 -1.176783
17.930471 -1.041369
17.934465 -0.949152
17.938471 -0.886990
17.942477 -0.825391
17.946463 -0.748710
17.950472 -0.668756
17.954463 -0.608309
17.958472 -0.575812
17.962470 -0.558906
17.966461 -0.538132
17.970463 -0.501590
17.974496 -0.447717
17.978694 -0.378526
17.982635 -0.295145
17.986466 -0.204419
17.990478 -0.124723
17.994468 -0.072778
17.998465 -0.043847
18.002481 -0.015513
18.006468  0.025819
18.010466  0.069007
18.014466  0.091975
18.018465  0.087407
18.022478  0.072049
18.026532  0.074144
18.030473  0.114685
18.034473  0.197325
18.038589  0.310740
18.042660  0.436141
18.046681  0.550886
18.050468  0.632810
18.054465  0.674006
18.058593  0.692215
18.062647  0.718347
18.066480  0.766002
18.070473  0.817588
18.074469  0.845366
18.078464  0.843682
18.082639  0.836162
18.086473  0.850581
18.090473  0.890138
18.094472  0.934030
18.098465  0.962167
18.102474  0.967903
18.106456  0.951079
18.110459  0.919396
18.114471  0.895525
18.118463  0.898764
18.122543  0.916685
18.126478  0.909832
18.130468  0.844095
18.134473  0.715024
18.138473  0.548140
18.142472  0.379341
18.146473  0.231950
18.150467  0.108843
18.154469  0.000671
18.158466 -0.102675
18.162479 -0.207413
18.166466 -0.317887
18.170465 -0.436047
18.174473 -0.554191
18.178466 -0.651938
18.182471 -0.707448
18.186465 -0.714302
18.190478 -0.686676
18.194476 -0.648152
18.198465 -0.616474
18.202481 -0.598522
18.206465 -0.596204
18.210466 -0.611255
18.214465 -0.641102
18.218466 -0.673473
18.222478 -0.692636
18.226564 -0.694865
18.230468 -0.693433
18.234467 -0.703723
18.238466 -0.727710
18.242483 -0.758004
18.246468 -0.789340
18.250466 -0.814682
18.254474 -0.816126
18.258460 -0.776198
18.262471 -0.699470
18.266476 -0.614488
18.270567 -0.554507
18.274460 -0.536572
18.278472 -0.552414
18.282468 -0.577160
18.286467 -0.590185
18.290641 -0.588160
18.294465 -0.578037
18.298478 -0.562530
18.302475 -0.539222
18.306466 -0.512705
18.310473 -0.497238
18.314466 -0.501047
18.318466 -0.512364
18.322644 -0.507081
18.326464 -0.470930
18.330471 -0.411150
18.334464 -0.343441
18.338465 -0.269725
18.342470 -0.175405
18.346464 -0.049345
18.350471  0.101182
18.354680  0.258717
18.358468  0.411497
18.362503  0.554748
18.366475  0.680187
18.370465  0.773240
18.374466  0.822973
18.378473  0.828490
18.382471  0.791386
18.386473  0.707297
18.390477  0.572326
18.394476  0.396271
18.398449  0.203504
18.402451  0.021070
18.406447 -0.132218
18.410475 -0.249752
18.414465 -0.334989
18.418466 -0.395003
18.422804 -0.436649
18.426463 -0.469343
18.430473 -0.504951
18.434463 -0.547090
18.438512 -0.583037
18.442476 -0.595423
18.446474 -0.584944
18.450471 -0.577693
18.454466 -0.607227
18.458676 -0.690001
18.462470 -0.819534
18.466472 -0.977241
18.470448 -1.130025
18.474953 -1.203274
18.478474 -1.064883
18.482453 -0.568454
18.486443  0.345483
18.490860  1.557796
18.494466  2.766704
18.498464  3.595595
18.502481  3.766174
18.506477  3.236209
18.510466  2.206022
18.514473  0.993380
18.518473 -0.119969
18.522536 -0.971654
18.526462 -1.518443
18.530476 -1.793606
18.534468 -1.860662
18.538475 -1.784166
18.542478 -1.622929
18.546474 -1.433679
18.550465 -1.265243
18.554473 -1.141239
18.558726 -1.052731
18.562471 -0.975278
18.566464 -0.894530
18.570606 -0.813972
18.574470 -0.741355
18.578465 -0.675149
18.582473 -0.609349
18.586467 -0.548310
18.590460 -0.505373
18.594465 -0.480504
18.598466 -0.449308
18.602478 -0.386741
18.606471 -0.297900
18.610464 -0.214058
18.614473 -0.158850
18.618463 -0.127015
18.622470 -0.097752
18.626464 -0.060890
18.630465 -0.023308
18.634471  0.007148
18.638464  0.035052
18.642470  0.070556
18.646479  0.113208
18.650468  0.149918
18.654466  0.172328
18.658478  0.191810
18.662473  0.230083
18.666473  0.294279
18.670479  0.368056
18.674475  0.430519
18.678466  0.477720
18.682485  0.520490
18.686468  0.567828
18.690473  0.622638
18.694530  0.690900
18.698468  0.781699
18.702519  0.893025
18.706443  1.002742
18.710471  1.079075
18.714472  1.105051
18.718464  1.095212
18.722453  1.082901
18.726624  1.086214
18.730474  1.091466
18.734465  1.073567
18.738467  1.024540
18.742470  0.956591
18.746566  0.884175
18.750469  0.810957
18.754466  0.733875
18.758473  0.653822
18.762481  0.576045
18.766465  0.499556
18.770473  0.412865
18.774473  0.306109
18.778473  0.185575
18.782471  0.070670
18.786556 -0.023956
18.790466 -0.098332
18.794466 -0.158049
18.798478 -0.201592
18.802473 -0.222900
18.806466 -0.224733
18.810478 -0.222255
18.814469 -0.228873
18.818465 -0.240204
18.822708 -0.236814
18.826476 -0.205167
18.830468 -0.153064
18.834473 -0.101569
18.838456 -0.064757
18.842462 -0.042253
18.846476 -0.030112
18.850468 -0.030595
18.854466 -0.045983
18.858473 -0.068449
18.862471 -0.084959
18.866464 -0.092399
18.870465 -0.101268
18.874466 -0.121741
18.878477 -0.150079
18.882473 -0.172336
18.886465 -0.179081
18.890467 -0.172218
18.894465 -0.158989
18.898482  0.251479
18.902473  0.295228
18.906466  0.334293
18.910476  0.358896
18.914468  0.362492
18.918466  0.351757
18.922478  0.339194
18.926473  0.326973
18.930640  0.308410
18.938471  0.285969
18.942469  0.276007
18.946464  0.290701
18.950464  0.323757
18.954464  0.360978
18.958466  0.400697
18.962479  0.455633
18.966471  0.533958
18.970471  0.626173
18.974464  0.716567
18.978464  0.804749
18.982476  0.908739
18.986518  1.043545
18.990467  1.200100
18.994470  1.349941
18.998500  1.467232
19.002451  1.539145
19.006444  1.559773
19.010473  1.527750
19.014471  1.450862
19.018536  1.340786
19.022891  1.201072
19.026471  1.030265
19.030464  0.836898
19.034471  0.642920
19.038466  0.472158
19.042471  0.336557
19.046463  0.228815
19.050464  0.128261
19.054463  0.020333
19.058472 -0.086955
19.062650 -0.168688
19.066473 -0.207128
19.070464 -0.210560
19.074538 -0.211671
19.078467 -0.251750
19.082799 -0.363697
19.086472 -0.558122
19.090463 -0.811823
19.094472 -1.062092
19.098473 -1.208019
19.102470 -1.116330
19.106464 -0.646693
19.110464  0.277949
19.114463  1.574676
19.118486  2.959019
19.122469  4.028248
19.126473  4.441829
19.130476  4.087895
19.134468  3.128585
19.138466  1.896630
19.142643  0.720860
19.146473 -0.197617
19.150473 -0.801245
19.154466 -1.121042
19.158475 -1.219270
19.162479 -1.165532
19.166467 -1.034317
19.170463 -0.893747
19.174464 -0.781773
19.178612 -0.696495
19.182473 -0.615247
19.186731 -0.523069
19.191468 -0.423135
19.194737 -0.325037
19.198513 -0.231796
19.202474 -0.143563
19.206467 -0.068428
19.210464 -0.018710
19.214472  0.006098
19.218593  0.026066
19.222471  0.064909
19.226514  0.127760
19.230475  0.197883
19.234467  0.255365
19.238475  0.294363
19.242470  0.319440
19.246465  0.331348
19.250464  0.325801
19.254473  0.305937
19.258464  0.286134
19.262476  0.277859
19.266464  0.275977
19.270464  0.264926
19.274464  0.238693
19.278464  0.210116
19.282476  0.197047
19.286464  0.202823
19.290471  0.217035
19.294471  0.235057
19.298471  0.268870
19.302462  0.333092
19.306515  0.422096
19.310471  0.507222
19.314465  0.562389
19.318473  0.591911
19.322453  0.624873
19.326471  0.678738
19.330465  0.739300
19.334473  0.783011
19.338474  0.806794
19.342478  0.825135
19.346472  0.845301
19.350471  0.859122
19.354437  0.861959
19.358463  0.866315
19.362480  0.883107
19.366464  0.896479
19.370471  0.872504
19.374472  0.792629
19.378463  0.671098
19.382467  0.540324
19.386463  0.422857
19.390472  0.317324
19.394471  0.209129
19.398464  0.090805
19.402476 -0.031300
19.406472 -0.147337
19.410471 -0.252890
19.414465 -0.344320
19.418470 -0.412172
19.422471 -0.449293
19.426466 -0.466780
19.430466 -0.493170
19.434473 -0.549874
19.438468 -0.628318
19.442943 -0.697261
19.446606 -0.733210
19.450469 -0.738654
19.454464 -0.731075
19.458464 -0.722571
19.462472 -0.715184
19.466470 -0.710834
19.470464 -0.716242
19.474464 -0.734532
19.478463 -0.756720
19.482472 -0.768028
19.486469 -0.763360
19.490464 -0.751202
19.494466 -0.739469
19.498551 -0.722981
19.502475 -0.691290
19.506467 -0.646648
19.510469 -0.605767
19.514466 -0.580458
19.518462 -0.562163
19.522559 -0.531610
19.526468 -0.482708
19.530473 -0.432082
19.534473 -0.403085
19.538466 -0.403207
19.542472 -0.420022
19.546467 -0.436691
19.550601 -0.445702
19.554476 -0.447576
19.558458 -0.443634
19.562472 -0.435659
19.566473 -0.430213
19.570466 -0.436954
19.574473 -0.459722
19.582647 -0.491147
19.586464 -0.516189
19.590464 -0.516860
19.594606 -0.475503
19.598567 -0.382824
19.602599 -0.244416
19.606469 -0.075359
19.610787  0.110473
19.614475  0.306152
19.618472  0.509857
19.622477  0.715872
19.626466  0.907040
19.630480  1.059732
19.634471  1.157396
19.638463  1.196737
19.642625  1.179146
19.646463  1.099813
19.650596  0.952393
19.654468  0.746704
19.658475  0.516399
19.662478  0.302020
19.666478  0.122818
19.670468 -0.033741
19.674466 -0.191698
19.678465 -0.355271
19.682586 -0.500408
19.686496 -0.600170
19.690469 -0.655520
19.694469 -0.693885
19.698476 -0.738394
19.702534 -0.788951
19.706473 -0.835989
19.710515 -0.882881
19.714473 -0.949672
19.718479 -1.059035
19.722473 -1.218419
19.726466 -1.406112
19.730645 -1.561422
19.734587 -1.580977
19.738466 -1.335577
19.742478 -0.721990
19.746467  0.264696
19.750448  1.479087
19.754556  2.632590
19.758469  3.382583
19.762476  3.487672
19.766526  2.937378
19.770466  1.946094
19.774457  0.815822
19.778464 -0.210030
19.782469 -1.006072
19.786472 -1.545090
19.790463 -1.852720
19.794464 -1.972238
19.798464 -1.949988
19.802480 -1.836953
19.806466 -1.690065
19.810465 -1.558616
19.814466 -1.462474
19.818473 -1.386118
19.822480 -1.300999
19.826478 -1.196742
19.830475 -1.088086
19.834466 -0.993011
19.838457 -0.913120
19.842470 -0.839239
19.846457 -0.768142
19.850472 -0.705448
19.854476 -0.653516
19.858468 -0.602909
19.862480 -0.539982
19.866473 -0.462408
19.870466 -0.382505
19.874478 -0.313156
19.878477 -0.255507
19.882472 -0.203995
19.886473 -0.157695
19.890465 -0.119928
19.894473 -0.089366
19.898474 -0.058132
19.902471 -0.016561
19.906474  0.045790
19.910467  0.137659
19.914474  0.254656
19.918467  0.374250
19.922449  0.469957
19.926441  0.528511
19.930459  0.552989
19.934466  0.557489
19.938473  0.560889
19.942478  0.576085
19.946476  0.598477
19.950468  0.610368
19.954637  0.602456
19.958464  0.586476
19.962483  0.580526
19.966466  0.586235
19.970596  0.590544
19.974464  0.590576
19.978623  0.604151
19.982475  0.646253
19.986469  0.702462
19.990473  0.738179
19.994466  0.733510
19.998466  0.700225
20.002484  0.662192
20.006476  0.625301
20.010466  0.573332
20.014473  0.492984
20.018473  0.395483
20.022471  0.307644
20.026473  0.243376
20.030473  0.189428
20.034466  0.121446
20.038466  0.031518
20.042544 -0.064383
20.046464 -0.146003
20.050473 -0.208507
20.054467 -0.258303
20.058465 -0.297218
20.062650 -0.321073
20.066476 -0.332164
20.070468 -0.343611
20.074465 -0.367295
20.078466 -0.401520
20.082478 -0.434843
20.086468 -0.459759
20.090466 -0.476664
20.094642 -0.484100
20.098463 -0.472346
20.102477 -0.432811
20.106596 -0.373080
20.110467 -0.317484
20.114466 -0.288743
20.118467 -0.289743
20.122467 -0.305827
20.126464 -0.322442
20.130464 -0.334569
20.134468 -0.339638
20.138473 -0.330562
20.142470 -0.302981
20.146471 -0.266428
20.150464 -0.240203
20.154464 -0.235011
20.158462 -0.242110
20.162481 -0.244308
20.166468 -0.236986
20.170475 -0.233851
20.174466 -0.249745
20.178466 -0.282150
20.182471 -0.314417
20.186466 -0.334151
20.190473 -0.341817
20.194474 -0.341292
20.198472 -0.328538
20.202463 -0.294158
20.206484 -0.235364
20.210476 -0.160558
20.214475 -0.079419
20.218475  0.008057
20.222524  0.104756
20.226466  0.197866
20.230466  0.258739
20.234466  0.271886
20.238466  0.261893
20.242483  0.282214
20.246470  0.372752
20.250474  0.530978
20.254459  0.723056
20.258531  0.913441
20.262453  1.077891
20.266607  1.194406
20.270464  1.236847
20.274463  1.189572
20.278462  1.066095
20.282476  0.902112
20.286472  0.726231
20.290678  0.543462
20.294471  0.349111
20.298464  0.150434
20.302470 -0.031848
20.306465 -0.179375
20.310473 -0.286861
20.314471 -0.358727
20.318471 -0.404308
20.322503 -0.439624
20.326478 -0.483950
20.330465 -0.544688
20.334466 -0.606772
20.338473 -0.645647
20.342463 -0.659254
20.346455 -0.684742
20.350464 -0.770734
20.354471 -0.927430
20.358465 -1.106378
20.362476 -1.221853
20.366464 -1.176785
20.370465 -0.870798
20.374462 -0.218206
20.378568  0.791060
20.382471  2.011609
20.386674  3.126388
20.390475  3.761499
20.394466  3.689195
20.398461  2.965489
20.402862  1.880532
20.406469  0.767915
20.410613 -0.160721
20.414475 -0.845004
20.418466 -1.303954
20.422480 -1.567175
20.426475 -1.661554
20.430466 -1.625903
20.434466 -1.512033
20.438466 -1.369398
20.442471 -1.233001
20.446473 -1.122633
20.450473 -1.045901
20.454466 -0.998258
20.458473 -0.963940
20.462472 -0.925196
20.466679 -0.875729
20.470649 -0.822826
20.474468 -0.773186
20.478597 -0.720198
20.482594 -0.650605
20.486480 -0.561039
20.490468 -0.460259
20.494476 -0.356291
20.498470 -0.250668
20.502470 -0.145263
20.506453 -0.044487
20.510467  0.050849
20.514461  0.143391
20.518478  0.231174
20.522740  0.305633
20.526465  0.360570
20.530472  0.402238
20.534465  0.448299
20.538469  0.513779
20.542476  0.596512
20.546464  0.675779
20.550472  0.726771
20.554469  0.741750
20.558465  0.738546
20.562469  0.743480
20.566478  0.765375
20.570468  0.791160
20.574475  0.805465
20.578474  0.806756
20.582472  0.802010
20.586473  0.792392
20.590466  0.772240
20.594466  0.743250
20.598479  0.722146
20.602480  0.725714
20.606466  0.748824
20.610473  0.765326
20.614466  0.753166
20.618599  0.713234
20.622475  0.661757
20.626463  0.610177
20.630478  0.557156
20.634477  0.497209
20.638464  0.431310
20.642470  0.366855
20.646740  0.308284
20.650469  0.250105
20.654464  0.182664
20.658464  0.105284
20.662469  0.028100
20.666472 -0.041535
20.670474 -0.106662
20.674468 -0.169451
20.678473 -0.220055
20.682471 -0.245894
20.686466 -0.249392
20.690472 -0.248536
20.694471 -0.258101
20.698466 -0.273700
20.702471 -0.277398
20.706478 -0.259981
20.710468 -0.234938
20.714466 -0.227018
20.718467 -0.248745
20.722478 -0.291432
20.726473 -0.335486
20.730669 -0.364182
20.734458 -0.369964
20.738473 -0.353017
20.742478 -0.318382
20.746468 -0.278769
20.750473 -0.255740
20.754473 -0.265131
20.758469 -0.297740
20.762608 -0.324034
20.766468 -0.321934
20.770674 -0.292163
20.774471 -0.246626
20.778471 -0.195536
20.782463 -0.148950
20.786476 -0.117121
20.790468 -0.101168
20.794524 -0.090077
20.798533 -0.074948
20.802479 -0.063152
20.806447 -0.069229
20.810463 -0.091190
20.814637 -0.106262
20.818471 -0.096899
20.822453 -0.072349
20.826464 -0.053352
20.830721 -0.042277
20.834468 -0.022420
20.838736  0.015759
20.842475  0.059663
20.846469  0.086155
20.850444  0.082725
20.854792  0.059608
20.858464  0.043857
20.862478  0.057620
20.866464  0.099590
20.870471  0.149814
20.874472  0.193366
20.878461  0.236350
20.882470  0.296562
20.886464  0.381341
20.890464  0.480435
20.894471  0.581324
20.898464  0.683852
20.902469  0.792442
20.906464  0.896488
20.910464  0.967519
20.914471  0.979524
20.918471  0.927717
20.922470  0.824171
20.926476  0.680849
20.930475  0.504973
20.934466  0.309140
20.938725  0.115927
20.942469 -0.053476
20.946465 -0.193342
20.950464 -0.312444
20.954464 -0.419084
20.958471 -0.511405
20.962477 -0.586227
20.966463 -0.652238
20.970474 -0.721798
20.974463 -0.787070
20.978671 -0.819848
20.982478 -0.808354
20.986471 -0.787175
20.990464 -0.817732
20.994471 -0.937528
20.998471 -1.129773
21.002470 -1.335276
21.006472 -1.480031
21.010465 -1.481036
21.014463 -1.235875
21.018464 -0.643646
21.022637  0.319592
21.026465  1.518468
21.030456  2.652693
21.034647  3.369244
21.038558  3.439709
21.042476  2.879673
21.046633  1.916757
21.050472  0.840877
21.054465 -0.132570
21.058472 -0.899450
21.062654 -1.431607
21.066468 -1.738835
21.070464 -1.852687
21.074474 -1.819586
21.078476 -1.694548
21.082472 -1.534329
21.086478 -1.384365
21.090475 -1.259851
21.094473 -1.141542
21.098473 -1.001696
21.102479 -0.834957
21.106523 -0.659099
21.110473 -0.495740
21.114467 -0.362752
21.118441 -0.277265
21.122445 -0.248458
21.126441 -0.260932
21.130600 -0.271336
21.134456 -0.233331
21.138464 -0.133137
21.142489  0.001127
21.146468  0.125048
21.150470  0.210520
21.154471  0.259626
21.158459  0.295516
21.162479  0.338865
21.166464  0.387813
21.170463  0.420726
21.174478  0.420400
21.178470  0.393299
21.182471  0.362301
21.186473  0.343609
21.190466  0.336034
21.194466  0.332003
21.198466  0.332252
21.202471  0.344785
21.206474  0.371769
21.210468  0.404951
21.214473  0.437884
21.218468  0.477296
21.222463  0.534275
21.226479  0.604188
21.230477  0.663851
21.234473  0.694383
21.238466  0.702129
21.242473  0.709725
21.246476  0.729077
21.250478  0.751298
21.254466  0.762909
21.258466  0.763195
21.262483  0.760708
21.266468  0.756248
21.270466  0.735817
21.274479  0.683947
21.278468  0.603243
21.282470  0.516644
21.286484  0.445853
21.290466  0.389026
21.294461  0.326498
21.298733  0.246815
21.302472  0.156470
21.306463  0.064053
21.310464 -0.031911
21.314471 -0.133294
21.318465 -0.229538
21.322468 -0.305502
21.326465 -0.361549
21.330478 -0.415380
21.334468 -0.478663
21.338473 -0.538383
21.342471 -0.569388
21.346476 -0.564724
21.350469 -0.546741
21.354473 -0.543808
21.358467 -0.557888
21.362480 -0.560267
21.366518 -0.522379
21.370468 -0.448468
21.374461 -0.373612
21.378465 -0.332224
21.382466 -0.334072
21.386473 -0.364371
21.390467 -0.393451
21.394473 -0.387881
21.398550 -0.328446
21.402470 -0.226286
21.406528 -0.118005
21.410459 -0.039971
21.414439 -0.003337
21.418470  0.009632
21.422476  0.024796
21.426448  0.051144
21.430455  0.078468
21.434517  0.097482
21.438473  0.114407
21.442471  0.143104
21.446491  0.188475
21.450472  0.241368
21.454471  0.287020
21.458466  0.316129
21.462470  0.327700
21.466467  0.321538
21.470473  0.292625
21.474466  0.237579
21.478466  0.162071
21.482471  0.076481
21.486466 -0.010726
21.490683 -0.090056
21.498467 -0.148022
21.502483 -0.175961
21.506475 -0.180681
21.510465 -0.179969
21.514447 -0.184991
21.518448 -0.188703
21.522481 -0.173816
21.526474 -0.132243
21.530473 -0.073955
21.534465 -0.014243
21.538473  0.044437
21.542481  0.111483
21.546468  0.190810
21.550466  0.274314
21.554466  0.354802
21.558466  0.435268
21.562478  0.517733
21.566466  0.587724
21.570466  0.618868
21.574466  0.595318
21.578466  0.525596
21.582478  0.430769
21.586466  0.321315
21.590474  0.192069
21.594473  0.041169
21.598466 -0.114194
21.602478 -0.248885
21.606500 -0.354529
21.610466 -0.445667
21.614446 -0.540682
21.618460 -0.643276
21.622451 -0.745752
21.626447 -0.843625
21.630473 -0.936969
21.634448 -1.016481
21.638674 -1.059774
21.642605 -1.053674
21.646470 -1.020161
21.650471 -1.010966
21.654452 -1.070144
21.658473 -1.201366
21.662450 -1.370233
21.666467 -1.528687
21.670455 -1.621155
21.674449 -1.560946
21.678443 -1.220670
21.682460 -0.487213
21.686440  0.632088
21.690437  1.933232
21.694440  3.050871
21.698453  3.616378
21.702472  3.451255
21.706465  2.656440
21.710467  1.529910
21.714468  0.392199
21.718444 -0.541300
21.722610 -1.184593
21.726445 -1.542893
21.730467 -1.665449
21.734735 -1.612961
21.738509 -1.446781
21.742472 -1.230794
21.746569 -1.023501
21.750467 -0.855764
21.754467 -0.719595
21.758469 -0.589106
21.762463 -0.455333
21.766464 -0.337571
21.770463 -0.263625
21.774471 -0.243627
21.778464 -0.260829
21.782470 -0.285000
21.786478 -0.295833
21.790475 -0.293776
21.794474 -0.287805
21.798639 -0.276775
21.802479 -0.249951
21.806472 -0.205843
21.810473 -0.160425
21.814478 -0.129969
21.818468 -0.110702
21.822480 -0.083227
21.826473 -0.035886
21.830466  0.024526
21.834473  0.086472
21.838607  0.147953
21.842476  0.210756
21.846471  0.267693
21.850473  0.306231
21.854466  0.326202
21.858474  0.346117
21.862471  0.384893
21.866464  0.439854
21.870465  0.489646
21.874635  0.518331
21.878464  0.530657
21.882476  0.542236
21.886464  0.559234
21.890463  0.573271
21.894647  0.577992
21.898468  0.585076
21.902478  0.615652
21.906473  0.675125
21.910475  0.743578
21.914466  0.794341
21.918473  0.817012
21.922478  0.818686
21.926466  0.808518
21.930473  0.790153
21.934466  0.769489
21.938473  0.758882
21.942594  0.763797
21.946473  0.768406
21.950476  0.744294
21.954475  0.676267
21.958449  0.575674
21.962470  0.466564
21.966466  0.361930
21.970473  0.257532
21.974469  0.147857
21.978533  0.040486
21.982472 -0.051557
21.986473 -0.126607
21.990474 -0.191876
21.994525 -0.243592
21.998506 -0.261788
22.002445 -0.231573
22.006541 -0.164338
22.010467 -0.091292
22.014464 -0.036198
22.018467  0.000595
22.022474  0.029705
22.026473  0.050895
22.030465  0.051031
22.034464  0.023334
22.038473 -0.018937
22.042469 -0.054498
22.046464 -0.077804
22.050463 -0.102283
22.054473 -0.137219
22.058780 -0.171097
22.062647 -0.186626
22.066468 -0.186139
22.070464 -0.190646
22.074464 -0.213506
22.078462 -0.243179
22.082473 -0.256341
22.086469 -0.245562
22.090463 -0.228507
22.094464 -0.227596
22.098467 -0.245428
22.102474 -0.265705
22.106465 -0.274404
22.110466 -0.270601
22.114469 -0.256835
22.118541 -0.230460
22.122472 -0.190922
22.126466 -0.148845
22.130478 -0.120194
22.138466 -0.113144
22.142470 -0.125635
22.146473 -0.152496
22.150466 -0.185274
22.154735 -0.205857
22.158471 -0.194355
22.162676 -0.150220
22.166586 -0.098877
22.170466 -0.071640
22.174471 -0.078468
22.178465 -0.100816
22.182468 -0.112167
22.186465 -0.104649
22.190478 -0.092864
22.194475 -0.093399
22.198466 -0.106280
22.202478 -0.118017
22.206474 -0.116587
22.210467 -0.096408
22.214476 -0.051689
22.218519  0.023411
22.222482  0.122725
22.226465  0.223302
22.230473  0.301869
22.234474  0.357946
22.238466  0.416359
22.242470  0.503379
22.246658  0.621096
22.250466  0.746828
22.254475  0.855595
22.258473  0.938550
22.262748  0.997329
22.266471  1.025499
22.270472  1.005177
22.274466  0.924785
22.278466  0.792223
22.282483  0.623869
22.286468  0.426873
22.290465  0.206262
22.294478 -0.007423
22.298469 -0.155648
22.302476 -0.199076
22.306472 -0.165842
22.310628 -0.133932
22.314472 -0.161379
22.318471 -0.242881
22.322619 -0.330512
22.326470 -0.383498
22.330769 -0.396819
22.334471 -0.391855
22.338515 -0.392158
22.342476 -0.417202
22.346443 -0.492724
22.350596 -0.646552
22.354575 -0.879985
22.358500 -1.139053
22.362630 -1.307721
22.366515 -1.226474
22.370555 -0.736988
22.374536  0.243962
22.378938  1.636125
22.382603  3.147372
22.386466  4.339734
22.390493  4.824127
22.394469  4.471707
22.398466  3.472663
22.402483  2.192094
22.406468  0.958133
22.410466 -0.048363
22.414466 -0.772540
22.418473 -1.223662
22.422471 -1.445129
22.426466 -1.507812
22.430466 -1.492083
22.434466 -1.458645
22.438465 -1.433677
22.442480 -1.418065
22.446467 -1.404436
22.450678 -1.385540
22.454474 -1.355693
22.458473 -1.313100
22.462481 -1.263162
22.466468 -1.217325
22.470466 -1.182820
22.474466 -1.149942
22.478476 -1.094954
22.482480 -1.003108
22.486475 -0.888738
22.490466 -0.787490
22.494467 -0.725143
22.498465 -0.694704
22.502472 -0.667231
22.506478 -0.624063
22.510468 -0.571917
22.514637 -0.525825
22.518473 -0.487633
22.522471 -0.448601
22.526466 -0.406650
22.530466 -0.369984
22.534466 -0.342907
22.538598 -0.316606
22.542471 -0.279637
22.546464 -0.234410
22.550471 -0.196742
22.554463 -0.177147
22.558464 -0.166988
22.562468 -0.147818
22.566473 -0.112780
22.570472 -0.073293
22.574464 -0.043901
22.578463 -0.026532
22.582470 -0.014222
22.586463 -0.005571
22.590472 -0.005568
22.594464 -0.010221
22.598465  0.000844
22.602475  0.049729
22.606465  0.140514
22.610469  0.255681
22.614463  0.367895
22.618443  0.454602
22.622445  0.505063
22.626465  0.516136
22.630596  0.489010
22.634467  0.438981
22.638511  0.398991
22.642612  0.393387
22.646523  0.407449
22.650466  0.397936
22.654441  0.338075
22.658670  0.246017
22.662470  0.166825
22.666596  0.128811
22.670470  0.119363
22.674463  0.102742
22.678473  0.056794
22.682464 -0.013391
22.686464 -0.094152
22.690555 -0.181562
22.694468 -0.274759
22.698466 -0.362325
22.702483 -0.429569
22.706468 -0.478272
22.710466 -0.527807
22.714466 -0.593197
22.718473 -0.668192
22.722470 -0.733060
22.726465 -0.774895
22.730466 -0.795824
22.734466 -0.802772
22.738474 -0.795532
22.742470 -0.769244
22.746466 -0.726214
22.750521 -0.678859
22.754474 -0.637797
22.758465 -0.600620
22.762479 -0.558505
22.766475 -0.514590
22.770474 -0.488896
22.774533 -0.498654
22.778467 -0.535996
22.782471 -0.572621
22.786466 -0.588018
22.790476 -0.586576
22.794475 -0.584420
22.798449 -0.586621
22.802473 -0.584208
22.806473 -0.570997
22.810466 -0.555057
22.814467 -0.549941
22.818466 -0.558804
22.822471 -0.570495
22.826473 -0.568440
22.830473 -0.540120
22.834454 -0.480328
22.838468 -0.392574
22.842476 -0.293023
22.846472 -0.210063
22.850463 -0.170459
22.854472 -0.180387
22.858469 -0.221477
22.862464 -0.266550
22.866476 -0.296603
22.870468 -0.301935
22.874473 -0.276169
22.878479 -0.226351
22.882478 -0.197750
22.886475 -0.270454
22.890467 -0.486651
22.894475 -0.755564
22.898771 -0.876557
22.902469 -0.720439
22.906468 -0.366811
22.910445 -0.014193
22.914590  0.212358
22.918467  0.327157
22.922447  0.405147
22.926512  0.492156
22.930524  0.588607
22.934583  0.691224
22.938469  0.827261
22.942475  1.030245
22.946467  1.278871
22.950528  1.485115
22.954462  1.568560
22.958471  1.529652
22.962469  1.429004
22.966478  1.312335
22.970468  1.179161
22.974473  1.013583
22.978473  0.821601
22.982471  0.630463
22.986601  0.459665
22.990471  0.304997
22.994464  0.153974
22.998463  0.007179
23.002470 -0.123504
23.006463 -0.231781
23.010472 -0.321133
23.014463 -0.392138
23.018471 -0.435812
23.022483 -0.447323
23.026636 -0.445345
23.030466 -0.471221
23.034473 -0.562193
23.038466 -0.722149
23.042472 -0.918532
23.046465 -1.104181
23.050466 -1.230125
23.054473 -1.228687
23.058466 -0.996934
23.062643 -0.428674
23.066471  0.502336
23.070472  1.664492
23.074463  2.768772
23.078472  3.478807
23.082478  3.577419
23.086696  3.073390
23.090466  2.170530
23.094653  1.136318
23.098471  0.177133
23.102469 -0.606937
23.106464 -1.193099
23.110639 -1.584812
23.114663 -1.785394
23.118469 -1.807418
23.122463 -1.693905
23.126464 -1.517249
23.130457 -1.346345
23.134472 -1.209609
23.138464 -1.090503
23.142476 -0.960651
23.146471 -0.816741
23.150464 -0.683657
23.154471 -0.584446
23.158465 -0.515713
23.162468 -0.457457
23.166641 -0.400101
23.170463 -0.351459
23.174472 -0.318753
23.178599 -0.294755
23.182477 -0.266324
23.186589 -0.229665
23.190471 -0.188486
23.194506 -0.139893
23.198487 -0.073544
23.202475  0.013289
23.206445  0.110933
23.210468  0.213466
23.214466  0.330330
23.218468  0.471448
23.222475  0.623952
23.226458  0.752174
23.230471  0.823677
23.234464  0.836750
23.238471  0.822738
23.242477  0.817953
23.246463  0.832044
23.250464  0.846179
23.254465  0.840716
23.258465  0.818772
23.262477  0.799879
23.266471  0.794893
23.270464  0.794884
23.274476  0.786153
23.278466  0.768307
23.282478  0.751379
23.286784  0.739306
23.290471  0.723855
23.294458  0.696516
23.298464  0.662184
23.302469  0.636721
23.306471  0.631565
23.310473  0.644790
23.314471  0.667545
23.318523  0.693083
23.322479  0.714247
23.326465  0.716848
23.330466  0.686265
23.334473  0.623558
23.338466  0.548308
23.342470  0.480469
23.346464  0.421921
23.350478  0.359433
23.354468  0.284051
23.358466  0.203662
23.362472  0.134938
23.366478  0.085121
23.370468  0.046883
23.374467  0.012940
23.378478 -0.010976
23.382481 -0.015102
23.386473 -0.004149
23.390466  0.003294
23.394473 -0.004063
23.398474 -0.017227
23.402470 -0.019929
23.406468 -0.010167
23.410473 -0.001972
23.414462 -0.005875
23.418461 -0.014326
23.422468 -0.011209
23.426474  0.007277
23.430468  0.028144
23.434466  0.038872
23.438466  0.042850
23.442479  0.053356
23.446473  0.074816
23.450478  0.095877
23.454468  0.104264
23.458465  0.104428
23.462483  0.112956
23.466475  0.136869
23.470474  0.164199
23.474465  0.177477
23.478466  0.169660
23.482470  0.144343
23.486474  0.108736
23.490473  0.075911
23.494476  0.068881
23.498513  0.107317
23.502477  0.186536
23.506470  0.275985
23.510467  0.339009
23.514469  0.355347
23.518443  0.332697
23.522448  0.300345
23.526465  0.288758
23.530472  0.312175
23.534470  0.365366
23.538468  0.430996
23.542505  0.488541
23.546516  0.519496
23.550469  0.514612
23.554470  0.486310
23.558920  0.467422
23.562544  0.482376
23.566476  0.518898
23.570468  0.538147
23.574473  0.513093
23.578447  0.450146
23.582473  0.374064
23.586455  0.301031
23.590462  0.235085
23.594527  0.188491
23.598473  0.189201
23.602533  0.254300
23.606580  0.362290
23.610471  0.465938
23.614612  0.533793
23.618462  0.573232
23.622469  0.614643
23.626465  0.680145
23.630471  0.770308
23.634472  0.875746
23.638467  0.991264
23.642471  1.112323
23.646592  1.221960
23.650547  1.292003
23.654472  1.302591
23.658464  1.256350
23.662470  1.169226
23.666536  1.051431
23.670468  0.903200
23.674465  0.727590
23.678640  0.539854
23.682476  0.358677
23.686464  0.190697
23.690600  0.030707
23.694464 -0.121810
23.698464 -0.253763
23.702481 -0.351677
23.706598 -0.419611
23.710468 -0.476101
23.714466 -0.532755
23.718473 -0.581903
23.722471 -0.610064
23.726466 -0.623317
23.730466 -0.655224
23.734466 -0.745727
23.738474 -0.910903
23.742472 -1.132374
23.746466 -1.369262
23.750466 -1.565629
23.754478 -1.636270
23.758466 -1.457607
23.762478 -0.906147
23.766466  0.056724
23.770466  1.307681
23.774466  2.553137
23.778478  3.419562
23.782662  3.619442
23.786471  3.100685
23.790464  2.067698
23.794537  0.855948
23.798473 -0.235178
23.802467 -1.037231
23.806467 -1.514881
23.810619 -1.720138
23.814464 -1.737496
23.818469 -1.643654
23.822469 -1.496564
23.826471 -1.342474
23.830466 -1.215546
23.834656 -1.127352
23.838468 -1.065385
23.842471 -1.010599
23.846473 -0.959163
23.850466 -0.924380
23.854466 -0.916119
23.858466 -0.924170
23.862472 -0.927954
23.866473 -0.919270
23.870468 -0.907420
23.874466 -0.901942
23.878464 -0.898007
23.882470 -0.882966
23.886474 -0.853808
23.890465 -0.822179
23.894473 -0.799358
23.898474 -0.778658
23.902470 -0.737478
23.906473 -0.658967
23.910607 -0.550938
23.914466  0.355453
23.918465  0.385480
23.922471  0.437214
23.926597  0.510680
23.930466  0.585762
23.934464  0.643959
23.938471  0.685816
23.942469  0.725369
23.946464  0.770763
23.950478  0.816510
23.954468  0.854759
23.958465  0.886644
23.962473  0.917752
23.966466  0.947116
23.970473  0.968427
23.974473  0.982340
23.978466  1.000810
23.982478  1.034777
23.986464  1.079610
23.990473  1.117138
23.994474  1.132945
23.998472  1.129073
24.002472  1.119127
24.006475  1.113681
24.010479  1.112083
24.014474  1.106358
24.018475  1.089347
24.022469  1.057677
24.026466  1.009578
24.030735  0.944392
24.034470  0.866030
24.038467  0.782321
24.042477  0.694611
24.046463  0.591722
24.050630  0.464656
24.058464  0.325795
24.062651  0.201333
24.066472  0.103244
24.070466  0.019566
24.074466 -0.064528
24.078474 -0.146277
24.082477 -0.212641
24.086466 -0.260466
24.090466 -0.298385
24.094527 -0.330378
24.098472 -0.348417
24.102576 -0.344965
24.106628 -0.325464
24.110522 -0.301815
24.114476 -0.274836
24.118467 -0.230457
24.122730 -0.159845
24.126453 -0.080431
24.130449 -0.026388
24.134470 -0.012598
24.138464 -0.012781
24.142475  0.016826
24.146470  0.089302
24.150464  0.172604
24.154715  0.226762
24.158472  0.242122
24.162468  0.235026
24.166476  0.219074
24.170474  0.192875
24.174466  0.153630
24.178467  0.111276
24.182474  0.080884
24.186473  0.064283
24.190467  0.048620
24.194472  0.025850
24.198464  0.007313
24.202613  0.013234
24.206473  0.050057
24.210475  0.103480
24.214473  0.153110
24.218474  0.188651
24.222632  0.209997
24.226464  0.216214
24.230471  0.202005
24.234464  0.168083
24.238464  0.129362
24.242481  0.104660
24.246468  0.097488
24.250466  0.093498
24.254473  0.079394
24.258478  0.058465
24.262473  0.043884
24.266539  0.042126
24.270467  0.047570
24.274465  0.048890
24.286467  0.035347
24.290464  0.000575
24.294464 -0.051703
24.298471 -0.104593
24.302537 -0.137656
24.306478 -0.145469
24.310469 -0.144395
24.314465 -0.155396
24.318466 -0.181175
24.322470 -0.204996
24.326478 -0.209294
24.330475 -0.188476
24.334469 -0.143749
24.338478 -0.072988
24.342480  0.027138
24.346464  0.149738
24.350584  0.277778
24.354691  0.401529
24.358776  0.529776
24.362477  0.675153
24.366503  0.829710
24.370473  0.963511
24.374466  1.050559
24.378479  1.089530
24.382482  1.093653
24.386466  1.067008
24.390466  1.001412
24.394447  0.895230
24.398466  0.764819
24.402475  0.633573
24.406455  0.514205
24.410467  0.404777
24.414469  0.298522
24.418471  0.193164
24.422459  0.093815
24.426499  0.011032
24.430466 -0.048389
24.434445 -0.090210
24.438463 -0.125060
24.442482 -0.154075
24.446467 -0.171969
24.450465 -0.180813
24.454676 -0.192397
24.458460 -0.223365
24.462479 -0.297305
24.466463 -0.444035
24.470464 -0.679884
24.474464 -0.981019
24.478464 -1.276800
24.482476 -1.465119
24.486465 -1.429378
24.490465 -1.055345
24.494465 -0.272431
24.498471  0.872891
24.502470  2.155827
24.506464  3.201453
24.510472  3.640759
24.514463  3.316933
24.518472  2.376372
24.522476  1.160012
24.526465  0.000346
24.530471 -0.906192
24.534465 -1.500970
24.538651 -1.808300
24.542476 -1.892028
24.546464 -1.832898
24.550465 -1.709416
24.554480 -1.577833
24.558468 -1.462476
24.562637 -1.364575
24.566511 -1.280792
24.570468 -1.211763
24.574466 -1.154873
24.578466 -1.099384
24.582471 -1.038303
24.586473 -0.982731
24.590466 -0.954643
24.594466 -0.959021
24.598465 -0.966512
24.602480 -0.934814
24.606458 -0.851580
24.610474 -0.746915
24.614474 -0.659441
24.618465 -0.600563
24.622678 -0.557191
24.626469 -0.518505
24.630464 -0.488117
24.634463 -0.471105
24.638588 -0.459609
24.642477 -0.437968
24.646466 -0.399283
24.650466 -0.350910
24.654469 -0.302451
24.658470 -0.253333
24.662471 -0.196629
24.666466 -0.131833
24.670466 -0.066764
24.674469 -0.006322
24.678470  0.053634
24.682471  0.117424
24.686466  0.181373
24.690466  0.241955
24.694469  0.306423
24.698472  0.385117
24.702453  0.475864
24.706447  0.564446
24.710465  0.637438
24.714592  0.688343
24.718442  0.717692
24.722477  0.735797
24.726445  0.762261
24.730471  0.814495
24.734462  0.892106
24.738464  0.974012
24.742816  1.035242
24.746445  1.066720
24.750520  1.076038
24.754468  1.071553
24.758474  1.051568
24.762463  1.007301
24.766456  0.930372
24.770448  0.820775
24.774470  0.694187
24.778473  0.577602
24.782479  0.489435
24.786466  0.422688
24.790466  0.352799
24.794465  0.264675
24.798476  0.168058
24.802475  0.083184
24.806739  0.015904
24.810468 -0.046387
24.814463 -0.115082
24.818467 -0.184147
24.822702 -0.237883
24.826467 -0.271069
24.830543 -0.295166
24.834466 -0.323527
24.838464 -0.355050
24.842480 -0.376639
24.846471 -0.380029
24.850466 -0.370769
24.854466 -0.360067
24.858466 -0.353353
24.862478 -0.350536
24.866467 -0.353999
24.870447 -0.369410
24.874530 -0.396154
24.878446 -0.420939
24.882747 -0.425551
24.886447 -0.402374
24.890457 -0.361925
24.894470 -0.323254
24.898471 -0.296479
24.902470 -0.278922
24.906468 -0.268153
24.910600 -0.268834
24.914472 -0.281346
24.918471 -0.291669
24.922477 -0.282123
24.926655 -0.251888
24.930468 -0.221358
24.934466 -0.214970
24.938555 -0.240343
24.942470 -0.281710
24.946471 -0.313701
24.950463 -0.322162
24.954518 -0.306163
24.958598 -0.264166
24.962475 -0.196125
24.966478 -0.118896
24.970468 -0.060829
24.974466 -0.037866
24.978466 -0.045285
24.982471 -0.072373
24.986475 -0.114059
24.990473 -0.162137
24.994473 -0.193266
24.998473 -0.180214
25.002473 -0.119446
25.006597 -0.041321
25.010444  0.012455
25.014443  0.023572
25.018471  0.009665
25.022476  0.001810
25.026473  0.012536
25.030592  0.029203
25.034544  0.034409
25.038466  0.025928
25.042478  0.015716
25.046476  0.013326
25.050466  0.014820
25.054466  0.009454
25.058731 -0.006612
25.062646 -0.028673
25.066468 -0.054064
25.070474 -0.086093
25.074621 -0.123969
25.078466 -0.154749
25.082474 -0.161106
25.086474 -0.135989
25.090465 -0.086044
25.094707 -0.021199
25.098470  0.053719
25.102472  0.134764
25.106468  0.213317
25.110464  0.282970
25.114464  0.350572
25.118585  0.432787
25.122517  0.536797
25.126473  0.645709
25.130753  0.728578
25.134466  0.767838
25.138466  0.773144
25.142478  0.764162
25.146467  0.743676
25.150465  0.694907
25.154467  0.604695
25.158473  0.481656
25.162472  0.347658
25.166531  0.216753
25.170474  0.090069
25.174473 -0.030114
25.178466 -0.131507
25.182481 -0.203405
25.186470 -0.253729
25.190466 -0.306625
25.194473 -0.378435
25.198466 -0.458500
25.202471 -0.519404
25.206478 -0.546589
25.210469 -0.554475
25.214635 -0.575851
25.218466 -0.641809
25.222472 -0.770562
25.226601 -0.963915
25.230473 -1.200316
25.234466 -1.420896
25.238465 -1.518856
25.242471 -1.352547
25.246465 -0.796135
25.250474  0.184106
25.254473  1.464025
25.258473  2.750080
25.262480  3.659556
25.266466  3.888411
25.270475  3.375829
25.274466  2.336013
25.278466  1.126085
25.282679  0.059071
25.286467 -0.705610
25.290473 -1.154437
25.294607 -1.348746
25.298473 -1.364426
25.302453 -1.272463
25.306458 -1.139535
25.310462 -1.018253
25.314459 -0.927284
25.318471 -0.848762
25.322477 -0.756143
25.326458 -0.647386
25.330476 -0.548448
25.334461 -0.485290
25.338460 -0.457920
25.342479 -0.445327
25.346466 -0.431219
25.350466 -0.416561
25.354466 -0.407058
25.358466 -0.398120
25.362483 -0.379017
25.366469 -0.348932
25.370466 -0.320634
25.374473 -0.304164
25.378474 -0.292184
25.382470 -0.268531
25.386467 -0.228981
25.390465 -0.185744
25.394466 -0.150545
25.398473 -0.120381
25.402472 -0.084774
25.406467 -0.042740
25.410468 -0.004677
25.414465  0.023383
25.418467  0.050710
25.422475  0.092199
25.426457  0.150574
25.430466  0.215055
25.434476  0.279055
25.438547  0.351361
25.442475  0.442982
25.446486  0.547018
25.450478  0.640183
25.454469  0.705516
25.458637  0.747537
25.462601  0.781037
25.466469  0.808962
25.470465  0.818565
25.474466  0.800366
25.478478  0.764716
25.482475  0.734910
25.486466  0.725979
25.490527  0.734742
25.494527  0.750908
25.498474  0.771996
25.502544  0.799754
25.506476  0.822712
25.510468  0.814254
25.514466  0.757803
25.518466  0.670329
25.522528  0.589930
25.526469  0.536688
25.530467  0.494660
25.534473  0.437699
25.538475  0.362222
25.542539  0.284216
25.546477  0.211946
25.550466  0.136005
25.554465  0.046975
25.558466 -0.048327
25.562478 -0.134636
25.566466 -0.206351
25.570465 -0.269724
25.574476 -0.328852
25.578470 -0.377538
25.582595 -0.407495
25.586765 -0.418790
25.590463 -0.415222
25.594602 -0.391503
25.598481 -0.336315
25.602446 -0.252982
25.606580 -0.167442
25.610469 -0.106831
25.614456 -0.074813
25.618469 -0.054813
25.622475 -0.034523
25.626528 -0.020901
25.630628 -0.029677
25.634468 -0.062536
25.638473 -0.099172
25.642655 -0.116780
25.646471 -0.116297
25.650466 -0.122012
25.654466 -0.153926
25.658466 -0.207752
25.662471 -0.264316
25.666656 -0.311661
25.670466 -0.351849
25.674463 -0.387546
25.678478 -0.410345
25.682473 -0.410266
25.686466 -0.394527
25.690473 -0.387108
25.694466 -0.405687
25.698466 -0.443627
25.702471 -0.478195
25.706466 -0.494034
25.710478 -0.495302
25.714464 -0.495780
25.718473 -0.500618
25.722473 -0.500437
25.726752 -0.484319
25.730475 -0.455421
25.734473 -0.426855
25.738600 -0.402711
25.742478 -0.373403
25.746477 -0.332355
25.750527 -0.287975
25.754466 -0.254715
25.758478 -0.238537
25.762473 -0.236581
25.766466 -0.248058
25.770466 -0.278554
25.774473 -0.330755
25.778466 -0.394750
25.782472 -0.454173
25.786447 -0.503366
25.790473 -0.551846
25.794583 -0.606011
25.798465 -0.651026
25.802569 -0.661649
25.806480 -0.633241
25.810462 -0.591967
25.814475 -0.569108
25.818473 -0.572773
25.822472 -0.588728
25.826473 -0.600314
25.830466 -0.598361
25.834465 -0.574398
25.838478 -0.517199
25.842482 -0.425199
25.846738 -0.318101
25.850471 -0.225528
25.854464 -0.159239
25.858464 -0.099482
25.862476 -0.012451
25.866464  0.118694
25.870471  0.279551
25.874473  0.436683
25.878464  0.559910
25.882470  0.634123
25.886465  0.657661
25.890471  0.638775
25.894523  0.594585
25.898466  0.544622
25.902474  0.496809
25.906446  0.439675
25.910541  0.353621
25.914440  0.231912
25.918441  0.088323
25.922477 -0.056088
25.926446 -0.189503
25.930441 -0.308785
25.934444 -0.406497
25.938495 -0.471849
25.942472 -0.511490
25.946453 -0.554971
25.950445 -0.621443
25.954442 -0.687997
25.958457 -0.714084
25.962472 -0.701217
25.966459 -0.709496
25.970635 -0.804402
25.974458 -0.993522
25.978471 -1.215093
25.982522 -1.372682
25.986473 -1.366416
25.990466 -1.097650
25.994473 -0.480572
25.998474  0.500740
26.002471  1.713781
26.006469  2.859669
26.010447  3.578988
26.014473  3.639425
26.018473  3.062783
26.022465  2.085028
26.026466  0.997112
26.030474  0.009592
26.034466 -0.775823
26.038467 -1.324547
26.042470 -1.635013
26.046474 -1.736098
26.050474 -1.686953
26.054477 -1.559077
26.058468 -1.412913
26.062640 -1.286470
26.066449 -1.196419
26.070443 -1.141491
26.074467 -1.104353
26.078464 -1.059103
26.082476 -0.988816
26.086464 -0.899984
26.090464 -0.815218
26.094463 -0.749388
26.098635 -0.696377
26.102476 -0.639388
26.106464 -0.567439
26.110606 -0.477889
26.114665 -0.369631
26.118467 -0.244675
26.122467 -0.118538
26.126462 -0.019529
26.130469  0.032548
26.134463  0.047612
26.138462  0.060218
26.142483  0.100116
26.146467  0.166857
26.150469  0.233541
26.154552  0.275290
26.158473  0.292157
26.162451  0.303735
26.166448  0.325590
26.170632  0.356084
26.174466  0.385871
26.178466  0.413329
26.182471  0.444805
26.186478  0.483779
26.190468  0.528799
26.194603  0.581714
26.198471  0.648581
26.202470  0.728238
26.206474  0.805989
26.210816  0.867063
26.214474  0.917821
26.218535  0.984013
26.222474  1.077669
26.226485  1.172129
26.230458  1.225073
26.234459  1.223451
26.238721  1.192392
26.242468  1.163584
26.246471  1.146313
26.250726  1.127618
26.254462  1.092734
26.258458  1.041517
26.262481  0.983701
26.266468  0.921045
26.270466  0.842221
26.274473  0.739238
26.278467  0.622736
26.282471  0.513942
26.286466  0.423345
26.290477  0.343453
26.294468  0.262668
26.298466  0.180331
26.302470  0.104270
26.306471  0.037231
26.310467 -0.026485
26.314465 -0.088937
26.318466 -0.139653
26.322484 -0.164670
26.326468 -0.162863
26.330465 -0.148222
26.334466 -0.135398
26.338496 -0.128246
26.342472 -0.125166
26.346466 -0.130008
26.350473 -0.149913
26.354517 -0.181369
26.359409 -0.205262
26.362700 -0.203046
26.366472 -0.177374
26.370465 -0.150870
26.374464 -0.143579
26.378603 -0.156136
26.382473 -0.175333
26.386466 -0.190241
26.390479 -0.198966
26.394477 -0.202272
26.398464 -0.195994
26.402478 -0.172958
26.406546 -0.132449
26.410796 -0.084773
26.414469 -0.042523
26.418465 -0.008653
26.422477  0.020902
26.426544  0.043330
26.430464  0.046372
26.434471  0.023438
26.438648 -0.014842
26.442476 -0.049334
26.446537 -0.069229
26.450472 -0.075116
26.454547 -0.068107
26.458547 -0.044373
26.462480 -0.004754
26.466538  0.034753
26.470474  0.050095
26.474466  0.029778
26.478466 -0.014770
26.482685 -0.061591
26.486665 -0.097435
26.490464 -0.120579
26.494588 -0.128204
26.498473 -0.111592
26.502477 -0.069824
26.506465 -0.021409
26.510720  0.007569
26.514470  0.005437
26.518470 -0.020044
26.522449 -0.053530
26.526457 -0.082895
26.530617 -0.102135
26.534634 -0.109270
26.538495 -0.103180
26.542472 -0.083768
26.546720 -0.053953
26.550458 -0.015777
26.554517  0.037708
26.558861  0.119876
26.562473  0.232894
26.566473  0.356475
26.570473  0.462569
26.574466  0.541647
26.578473  0.609284
26.582478  0.685273
26.586478  0.769891
26.590475  0.843296
26.594474  0.882559
26.598465  0.870574
26.602472  0.791249
26.606465  0.631870
26.610600  0.402175
26.618466  0.144973
26.622470 -0.087518
26.626599 -0.271705
26.630469 -0.420925
26.634466 -0.557887
26.638465 -0.688485
26.642478 -0.804695
26.646466 -0.903385
26.650473 -0.991903
26.654467 -1.074958
26.658464 -1.143966
26.662483 -1.185511
26.666571 -1.199112
26.670466 -1.202713
26.674466 -1.221580
26.678466 -1.275627
26.682472 -1.375758
26.686473 -1.523231
26.690466 -1.703579
26.694466 -1.876539
26.698466 -1.967195
26.702473 -1.866634
26.706473 -1.457469
26.710466 -0.671197
26.714466  0.440903
26.718465  1.664168
26.722644  2.656350
26.726600  3.087478
26.730473  2.817854
26.734474  1.976230
26.738465  0.866074
26.742472 -0.216724
26.746465 -1.106052
26.750635 -1.763927
26.754473 -2.208447
26.758467 -2.457828
26.762609 -2.526953
26.766474 -2.450160
26.770473 -2.286960
26.774468 -2.099929
26.778465 -1.930176
26.782472 -1.794172
26.786473 -1.693860
26.790469 -1.617778
26.794767 -1.537118
26.798497 -1.419589
26.802524 -1.257334
26.806506 -1.077788
26.810444 -0.923197
26.814441 -0.818368
26.818471 -0.756279
26.822477 -0.711835
26.826474 -0.665188
26.830464 -0.608820
26.834471 -0.538308
26.838590 -0.450602
26.846466 -0.357385
26.850473 -0.287118
26.854467 -0.256622
26.858465 -0.241832
26.862530 -0.193862
26.866610 -0.091743
26.870740  0.033432
26.874472  0.135010
26.878464  0.198278
26.882476  0.242072
26.886471  0.286230
26.890464  0.332389
26.894476  0.373684
26.898468  0.409884
26.902545  0.445686
26.906473  0.479835
26.910466  0.506448
26.914473  0.527890
26.918474  0.557031
26.922470  0.601083
26.926473  0.647048
26.930474  0.669702
26.934466  0.656552
26.938466  0.623050
26.942471  0.600520
26.946478  0.608596
26.950523  0.640405
26.954468  0.673867
26.958475  0.692936
26.962472  0.693475
26.966465  0.672868
26.970472  0.626639
26.974760  0.560203
26.978692  0.493704
26.982476  0.445197
26.986515  0.411981
26.990473  0.376044
26.994469  0.327878
26.998463  0.278610
27.002483  0.245534
27.006468  0.230060
27.010466  0.215795
27.014479  0.187832
27.018468  0.148271
27.022471  0.110172
27.026479  0.080726
27.030468  0.056534
27.034475  0.034794
27.038473  0.021099
27.042483  0.019824
27.046468  0.020458
27.050466  0.003839
27.054473 -0.033675
27.058473 -0.069688
27.062644 -0.077413
27.066476 -0.054242
27.070671 -0.021490
27.074464  0.001015
27.078465  0.011611
27.082479  0.017815
27.086473  0.018302
27.090476  0.001326
27.094472 -0.035940
27.098476 -0.069776
27.102478 -0.060486
27.106458  0.011041
27.110548  0.118108
27.114474  0.207808
27.118465  0.248745
27.122459  0.254545
27.126471  0.261040
27.130471  0.290028
27.134747  0.339274
27.138512  0.396866
27.142470  0.452233
27.146469  0.496928
27.150625  0.529386
27.154469  0.560317
27.158468  0.601885
27.162470  0.650438
27.166476  0.688330
27.170475  0.702861
27.174478  0.698583
27.178475  0.690856
27.182478  0.688109
27.186464  0.680572
27.190464  0.648869
27.194478  0.585704
27.198468  0.508100
27.202608  0.446201
27.206471  0.418112
27.210538  0.414950
27.214475  0.412309
27.218465  0.395223
27.222472  0.366261
27.226668  0.331376
27.230559  0.289812
27.234466  0.243139
27.238464  0.207043
27.242480  0.206609
27.246471  0.258246
27.250468  0.354631
27.258466  0.464451
27.262470  0.550786
27.266471  0.599180
27.270465  0.629892
27.274600  0.679525
27.278466  0.771673
27.282470  0.903398
27.286473  1.050628
27.290549  1.182234
27.294471  1.275341
27.298464  1.323671
27.302478  1.331036
27.306464  1.297609
27.310471  1.218307
27.314472  1.096110
27.318463  0.949389
27.322471  0.798604
27.326463  0.648959
27.330464  0.496755
27.334478  0.354413
27.338478  0.254650
27.342468  0.217794
27.346460  0.222806
27.350479  0.223216
27.354468  0.190597
27.358467  0.136849
27.362478  0.094847
27.366620  0.081444
27.370465  0.081100
27.374471  0.060372
27.378471 -0.008806
27.382750 -0.136061
27.386471 -0.308119
27.390464 -0.485248
27.394471 -0.597616
27.398702 -0.547931
27.402477 -0.228821
27.406473  0.440519
27.410625  1.461076
27.414472  2.700406
27.418474  3.878024
27.422476  4.640810
27.426676  4.730051
27.430448  4.136312
27.434471  3.103690
27.438465  1.968067
27.442473  0.970284
27.446465  0.192907
27.450587 -0.371152
27.454470 -0.731285
27.458460 -0.882818
27.462478 -0.843847
27.466467 -0.676987
27.470583 -0.463634
27.474471 -0.256830
27.478472 -0.065152
27.482472  0.115406
27.486480  0.266836
27.490473  0.358147
27.494465  0.381609
27.498466  0.366291
27.502471  0.352100
27.506466  0.354417
27.510473  0.357428
27.514466  0.339883
27.518466  0.301323
27.522471  0.261053
27.526466  0.236858
27.530473  0.231132
27.534466  0.238022
27.538466  0.257238
27.542481  0.293078
27.546468  0.341792
27.550466  0.390761
27.554473  0.433344
27.558463  0.475728
27.562469  0.524764
27.566464  0.575532
27.570463  0.616558
27.574464  0.645123
27.578471  0.671891
27.582470  0.707687
27.586470  0.748961
27.590464  0.782276
27.594463  0.803731
27.598474  0.827844
27.602643  0.872426
27.606594  0.936900
27.610468  1.001379
27.614465  1.048697
27.618477  1.082611
27.622465  1.121001
27.626466  1.174839
27.630514  1.238018
27.634445  1.295296
27.638471  1.335022
27.642469  1.353177
27.646471  1.349163
27.650464  1.323651
27.654464  1.282970
27.658464  1.241074
27.662471  1.210830
27.666476  1.192593
27.670469  1.174973
27.674473  1.147951
27.678466  1.111961
27.682478  1.071746
27.686473  1.025630
27.690466  0.968990
27.694528  0.909295
27.698468  0.868359
27.702476  0.862480
27.706472  0.883369
27.710465  0.903069
27.714471  0.896137
27.718470  0.855861
27.722474  0.791817
27.726445  0.715775
27.730469  0.633438
27.734446  0.549576
27.738469  0.474556
27.742475  0.419073
27.746513  0.385572
27.750470  0.373008
27.754470  0.385267
27.758437  0.421428
27.762472  0.461083
27.766461  0.474095
27.770470  0.446303
27.774631  0.390331
27.778471  0.332918
27.782477  0.292505
27.786599  0.266008
27.790464  0.237069
27.794463  0.197608
27.798471  0.158239
27.802528  0.135503
27.806470  0.133342
27.810464  0.142361
27.814733  0.153880
27.818472  0.167014
27.822471  0.181045
27.826466  0.187441
27.830466  0.176049
27.834469  0.149396
27.838473  0.125024
27.842471  0.119438
27.846475  0.132224
27.850473  0.149809
27.854466  0.163139
27.858476  0.176707
27.862480  0.197764
27.866474  0.220562
27.870503  0.229613
27.874470  0.220708
27.878466  0.209904
27.882483  0.214079
27.886468  0.226781
27.890473  0.221033
27.894696  0.175375
27.898463  0.092640
27.902477 -0.003885
27.906464 -0.085279
27.910471 -0.129647
27.914471 -0.130549
27.918464 -0.098841
27.922469 -0.056479
27.926476 -0.027915
27.930468 -0.031319
27.934466 -0.068779
27.938468 -0.124203
27.942478 -0.176610
27.946466 -0.216590
27.950465 -0.246522
27.954466 -0.265883
27.958468 -0.263213
27.962520 -0.227257
27.966468 -0.162833
27.970466 -0.087276
27.974475 -0.007087
27.978473  0.095913
27.982472  0.245624
27.986466  0.436640
27.990473  0.624972
27.994471  0.762111
27.998455  0.839244
28.002468  0.890069
28.006470  0.946364
28.010625  0.999469
28.014472  1.012589
28.018469  0.962351
28.022451  0.856150
28.026469  0.713575
28.030602  0.547323
28.034469  0.366961
28.038519  0.188729
28.042464  0.028945
28.046473 -0.110527
28.050464 -0.240551
28.054464 -0.367067
28.058478 -0.483025
28.062656 -0.581249
28.066468 -0.668516
28.070464 -0.759679
28.074474 -0.859339
28.078475 -0.956451
28.082472 -1.042469
28.086473 -1.133814
28.090466 -1.267554
28.094473 -1.465525
28.098476 -1.702949
28.102478 -1.915731
28.106474 -2.029793
28.110471 -1.970361
28.114473 -1.651851
28.118466 -0.994350
28.122480  0.008763
28.126473  1.209752
28.130767  2.291833
28.134465  2.882903
28.138471  2.757518
28.142476  1.971373
28.146636  0.806306
28.150471 -0.413815
28.154464 -1.468971
28.158464 -2.268313
28.162471 -2.804558
28.166463 -3.110644
28.170471 -3.237161
28.174466 -3.238339
28.178464 -3.162853
28.182469 -3.051223
