4.193183  0.540977
4.197170  0.535946
4.201144  0.523887
4.217196  0.509840
4.219425  0.508892
4.221724  0.530478
4.225161  0.567902
4.229161  0.605624
4.233161  0.632812
4.237161  0.648385
4.241170  0.658086
4.245166  0.668817
4.249170  0.682510
4.253164  0.693286
4.257164  0.691916
4.261164  0.674575
4.265175  0.645943
4.269165  0.611453
4.273163  0.568042
4.277175  0.506549
4.281167  0.423912
4.285163  0.329812
4.289162  0.238697
4.293168  0.156245
4.297169  0.076292
4.301163 -0.008972
4.305170 -0.098568
4.309162 -0.183915
4.313161 -0.258036
4.317173 -0.319935
4.321165 -0.370094
4.325172 -0.406408
4.329171 -0.428278
4.333164 -0.442520
4.337160 -0.459470
4.341160 -0.481924
4.345162 -0.502634
4.349161 -0.515188
4.353169 -0.523252
4.357162 -0.535003
4.361175 -0.551066
4.365165 -0.563896
4.369163 -0.569917
4.373163 -0.576986
4.377163 -0.595383
4.381171 -0.622274
4.385163 -0.639077
4.389395 -0.626851
4.393167 -0.584127
4.397163 -0.529264
4.401168 -0.486672
4.405175 -0.471456
4.413171 -0.482036
4.417171 -0.498531
4.421451 -0.490619
4.425335 -0.440822
4.429161 -0.363692
4.433342 -0.294690
4.437164 -0.257407
4.441249 -0.241893
4.445171 -0.216289
4.449400 -0.163131
4.453137 -0.100545
4.457137 -0.062997
4.461135 -0.068358
4.465137 -0.108946
4.469135 -0.166266
4.473317 -0.226738
4.477168 -0.285098
4.481155 -0.337838
4.485163 -0.377695
4.489173 -0.396878
4.493173 -0.394520
4.497236 -0.378184
4.501164 -0.357797
4.505175 -0.340422
4.509175 -0.331135
4.513384 -0.334376
4.517163 -0.349490
4.521257 -0.366523
4.525238 -0.373342
4.529165 -0.370200
4.533163 -0.373825
4.537171 -0.402956
4.541163 -0.459648
4.545163 -0.526911
4.549163 -0.584990
4.553163 -0.627368
4.557172 -0.660364
4.561164 -0.691318
4.565170 -0.720060
4.569171 -0.740337
4.573162 -0.748318
4.577164 -0.749689
4.581162 -0.757508
4.585164 -0.782100
4.589170 -0.821345
4.593164 -0.857951
4.597170 -0.866410
4.601165 -0.827329
4.605171 -0.739415
4.609300 -0.620352
4.613171 -0.497195
4.617257 -0.391686
4.621161 -0.307885
4.625173 -0.232447
4.629165 -0.149537
4.633163 -0.055815
4.637170  0.039623
4.641164  0.126702
4.645163  0.201301
4.649163  0.259963
4.653163  0.291911
4.657170  0.283092
4.661334  0.230506
4.665161  0.147827
4.669161  0.053165
4.673161 -0.045611
4.677169 -0.149923
4.681252 -0.258542
4.685161 -0.363174
4.689169 -0.456383
4.693161 -0.538066
4.697161 -0.610370
4.701263 -0.670033
4.705173 -0.711574
4.709158 -0.736230
4.713173 -0.750696
4.717229 -0.756801
4.721280 -0.750707
4.725157 -0.738046
4.729163 -0.746771
4.733164 -0.816213
4.737162 -0.964919
4.741248 -1.167380
4.745167 -1.365153
4.749170 -1.495890
4.753265 -1.498851
4.757164 -1.291303
4.761154 -0.764973
4.765143  0.147843
4.769144  1.359555
4.773509  2.573827
4.777163  3.397155
4.781162  3.563401
4.785160  3.082010
4.789169  2.192795
4.793159  1.195132
4.797211  0.301447
4.801164 -0.400015
4.805154 -0.897755
4.809162 -1.201314
4.813154 -1.325671
4.817167 -1.305424
4.821169 -1.198746
4.825320 -1.066038
4.829163 -0.947980
4.833172 -0.862921
4.837163 -0.813242
4.841163 -0.788633
4.845163 -0.770756
4.849163 -0.743525
4.853173 -0.702640
4.857337 -0.655892
4.861160 -0.613425
4.865162 -0.577853
4.869161 -0.545682
4.873169 -0.516595
4.877160 -0.494914
4.881162 -0.479753
4.885162 -0.460151
4.889162 -0.425918
4.893175 -0.380648
4.897167 -0.338269
4.901163 -0.306499
4.905171 -0.277622
4.909163 -0.237252
4.913162 -0.180125
4.917166 -0.115326
4.921157 -0.056540
4.925171 -0.008612
4.929163  0.035538
4.933289  0.085448
4.937165  0.143420
4.941163  0.205516
4.945163  0.268085
4.949163  0.329376
4.953171  0.387088
4.957163  0.438079
4.961163  0.481175
4.965163  0.520432
4.969171  0.564631
4.973168  0.620535
4.977172  0.686488
4.981163  0.754362
4.985164  0.815176
4.989162  0.859903
4.993164  0.879457
4.997170  0.871127
5.001164  0.844644
5.005163  0.815760
5.009164  0.791533
5.013162  0.765390
5.017171  0.728460
5.021170  0.682218
5.025164  0.636307
5.029163  0.594883
5.033165  0.549750
5.037162  0.490536
5.041171  0.419791
5.045170  0.352091
5.049169  0.296814
5.053171  0.249104
5.057157  0.202361
5.061282  0.161564
5.065172  0.136121
5.069148  0.123436
5.073170  0.106637
5.077164  0.068601
5.081164  0.005791
5.085164 -0.070301
5.089170 -0.143316
5.093164 -0.204386
5.097162 -0.255360
5.101164 -0.301026
5.105173 -0.341095
5.109165 -0.370915
5.113163 -0.387278
5.117163 -0.390994
5.121306 -0.384365
5.125167 -0.368926
5.129173 -0.347723
5.133170 -0.328137
5.137163 -0.317464
5.141164 -0.312919
5.145164 -0.300076
5.149163 -0.267165
5.153162 -0.220708
5.157169 -0.183090
5.161155 -0.173948
5.165162 -0.194985
5.169160 -0.231294
5.173169 -0.264328
5.177160 -0.282908
5.181162 -0.284884
5.185160 -0.273605
5.189162 -0.255771
5.193168 -0.239917
5.197162 -0.231471
5.201160 -0.227349
5.205162 -0.218498
5.209160 -0.201344
5.213169 -0.186520
5.217160 -0.192406
5.221164 -0.225135
5.225150 -0.263493
5.229169 -0.269476
5.233217 -0.221065
5.237169 -0.133383
5.241168 -0.044827
5.245161  0.012760
5.249161  0.029109
5.253161  0.011524
5.257161 -0.024390
5.261169 -0.061761
5.265161 -0.089061
5.269163 -0.105547
5.273164 -0.119449
5.277386 -0.138252
5.281169 -0.160426
5.285163 -0.177430
5.289163 -0.183106
5.293163 -0.179362
5.297167 -0.172728
5.301167 -0.167728
5.305163 -0.165191
5.309163 -0.165168
5.313164 -0.167194
5.317184 -0.165483
5.321169 -0.146971
5.325163 -0.099674
5.329166 -0.025428
5.333362  0.057860
5.337159  0.130490
5.341168  0.191214
5.345162  0.264390
5.349153  0.380873
5.353165  0.544838
5.357140  0.723364
5.361411  0.873969
5.365164  0.975772
5.369447  1.029831
5.373162  1.040834
5.377161  1.010389
5.381161  0.944775
5.385161  0.857599
5.389176  0.759957
5.393164  0.652640
5.397162  0.532472
5.401171  0.404023
5.405163  0.280310
5.409164  0.170740
5.413209  0.071365
5.417165 -0.029422
5.421163 -0.136072
5.425336 -0.239769
5.429168 -0.327066
5.433169 -0.390961
5.437169 -0.431685
5.441161 -0.451422
5.445166 -0.457001
5.449161 -0.470188
5.453161 -0.526539
5.457161 -0.652819
5.461161 -0.842250
5.465168 -1.053254
5.469168 -1.225605
5.473158 -1.284251
5.477169 -1.129511
5.481161 -0.653569
5.485424  0.192275
5.489164  1.314992
5.493165  2.453688
5.497163  3.261952
5.501337  3.476558
5.505171  3.061108
5.509163  2.207524
5.513162  1.198651
5.517158  0.257108
5.521161 -0.511069
5.525169 -1.082717
5.529161 -1.466082
5.533168 -1.677459
5.537162 -1.739966
5.541161 -1.684797
5.545169 -1.549652
5.549161 -1.376019
5.553161 -1.202836
5.557162 -1.055702
5.561161 -0.939593
5.565168 -0.843926
5.569161 -0.757124
5.573161 -0.676805
5.577161 -0.606834
5.581161 -0.548399
5.585169 -0.497310
5.589161 -0.449269
5.593161 -0.404589
5.597161 -0.365171
5.601161 -0.327979
5.605169 -0.285216
5.609161 -0.231898
5.613161 -0.171077
5.617161 -0.110887
5.621161 -0.057889
5.625169 -0.014886
5.629162  0.015546
5.633298  0.031621
5.637161  0.043055
5.641171  0.076143
5.645168  0.155152
5.649169  0.275041
5.653154  0.398521
5.657143  0.483390
5.661142  0.515069
5.665143  0.517116
5.669143  0.530379
5.673164  0.578650
5.677227  0.654050
5.681169  0.732452
5.685333  0.794529
5.689161  0.831491
5.693161  0.841448
5.697169  0.829018
5.701161  0.807671
5.705168  0.795447
5.709169  0.802327
5.713160  0.821717
5.717162  0.836416
5.721160  0.832741
5.725162  0.809491
5.729168  0.775497
5.733162  0.739624
5.737168  0.703944
5.741392  0.666024
5.745445  0.623368
5.749169  0.572718
5.753163  0.509671
5.757163  0.434284
5.761166  0.354881
5.765167  0.281828
5.769163  0.217791
5.773163  0.156156
5.777163  0.088818
5.781167  0.014610
5.785169 -0.059747
5.789163 -0.125938
5.793163 -0.180235
5.797163 -0.223805
5.801166 -0.258956
5.805167 -0.287049
5.809163 -0.309793
5.813163 -0.329891
5.817163 -0.348893
5.821167 -0.365785
5.825167 -0.378609
5.829163 -0.386582
5.833163 -0.390007
5.837163 -0.388578
5.841167 -0.381097
5.845167 -0.368517
5.849165 -0.357332
5.853163 -0.356507
5.857163 -0.366127
5.861166 -0.369112
5.865170 -0.342185
5.869171 -0.281653
5.873157 -0.213503
5.877162 -0.170259
5.881168 -0.160034
5.885161 -0.163984
5.889161 -0.161918
5.893161 -0.153299
5.897161 -0.151396
5.901169 -0.163756
5.905161 -0.185719
5.909161 -0.211088
5.913161 -0.240714
5.917161 -0.276860
5.921168 -0.313608
5.925161 -0.339035
5.929161 -0.347652
5.933162 -0.346983
5.937162 -0.349337
5.941174 -0.357225
5.945142 -0.357497
5.949170 -0.331615
5.953175 -0.274595
5.957165 -0.202651
5.961396 -0.138707
5.965159 -0.094247
5.969151 -0.070011
5.973168 -0.066858
5.977162 -0.085744
5.981161 -0.117987
5.985162 -0.143821
5.989168 -0.147347
5.993162 -0.133101
5.997161 -0.123095
6.001162 -0.135781
6.005161 -0.170340
6.009169 -0.210986
6.013160 -0.241669
6.017162 -0.254196
6.021161 -0.246568
6.025162 -0.220467
6.029168 -0.182195
6.033162 -0.140647
6.037160 -0.098125
6.041162 -0.043643
6.045172  0.039510
6.049166  0.157819
6.053162  0.300429
6.057164  0.446352
6.061162  0.575138
6.065172  0.670264
6.077337  0.717829
6.081170  0.710047
6.085163  0.651475
6.089163  0.556287
6.093163  0.437953
6.097163  0.304699
6.101171  0.163235
6.105163  0.021762
6.109163 -0.111672
6.113165 -0.231265
6.117163 -0.333190
6.121171 -0.415095
6.125163 -0.477778
6.129163 -0.526995
6.133163 -0.570589
6.137163 -0.611593
6.141171 -0.646022
6.145300 -0.670466
6.149163 -0.692725
6.153163 -0.734277
6.157163 -0.819340
6.161171 -0.956241
6.165170 -1.126572
6.169164 -1.290826
6.173170 -1.395042
6.177165 -1.360448
6.181163 -1.075833
6.185164 -0.436505
6.189422  0.566173
6.193164  1.767015
6.197331  2.842616
6.201162  3.447111
6.205259  3.394709
6.209157  2.753994
6.213161  1.781248
6.217169  0.759391
6.221160 -0.127474
6.225162 -0.817624
6.229161 -1.320667
6.233164 -1.655244
6.237161 -1.821418
6.241234 -1.818012
6.245172 -1.677970
6.249289 -1.475974
6.253169 -1.289900
6.257142 -1.151840
6.261161 -1.039907
6.265163 -0.917509
6.269138 -0.775807
6.273151 -0.637917
6.277397 -0.531654
6.281162 -0.466194
6.285160 -0.430540
6.289162 -0.406259
6.293168 -0.380738
6.297162 -0.351608
6.301161 -0.321296
6.305162 -0.290376
6.309161 -0.258105
6.313169 -0.226071
6.317160 -0.196074
6.321162 -0.165148
6.325160 -0.127765
6.329162 -0.083663
6.333175 -0.039175
6.337341  0.001447
6.341160  0.043813
6.345176  0.098665
6.349165  0.167350
6.353169  0.234853
6.357312  0.282147
6.361164  0.305799
6.365347  0.321649
6.369170  0.347281
6.373161  0.383501
6.377161  0.416327
6.381161  0.435412
6.385161  0.445282
6.389169  0.457255
6.393161  0.475943
6.397161  0.498161
6.401161  0.521115
6.405161  0.545414
6.409169  0.570694
6.413161  0.594099
6.417195  0.615536
6.421168  0.640279
6.425162  0.671491
6.429175  0.700979
6.433165  0.712543
6.437163  0.697058
6.441163  0.661591
6.445175  0.621101
6.449165  0.583249
6.453171  0.544488
6.457163  0.499413
6.461175  0.449469
6.465165  0.400926
6.469164  0.356562
6.473162  0.312848
6.477167  0.266999
6.481154  0.223764
6.485173  0.189984
6.489165  0.161524
6.493171  0.120194
6.497171  0.048755
6.501164 -0.047568
6.505145 -0.134173
6.509172 -0.169152
6.513171 -0.141005
6.517170 -0.080558
6.521160 -0.029123
6.525173 -0.002411
6.529164  0.008654
6.533164  0.014678
6.537164  0.018377
6.541170  0.022992
6.545204  0.037006
6.549316  0.065400
6.553171  0.100559
6.557164  0.127227
6.561166  0.136396
6.565162  0.131824
6.569151  0.124216
6.573173  0.122184
6.577164  0.128201
6.581290  0.139254
6.585165  0.148547
6.589173  0.147599
6.593176  0.130656
6.597171  0.100643
6.601157  0.070383
6.605170  0.053585
6.609163  0.051471
6.613163  0.050674
6.617171  0.037745
6.621164  0.014247
6.625163 -0.005205
6.629163 -0.008250
6.633173  0.004147
6.637232  0.020370
6.641170  0.029137
6.645161  0.027553
6.649173  0.020855
6.653165  0.017270
6.657304  0.023032
6.661172  0.038258
6.665172  0.053926
6.669171  0.054319
6.673163  0.027502
6.677163 -0.023607
6.681163 -0.081238
6.685163 -0.125526
6.689170 -0.148452
6.693163 -0.156522
6.697163 -0.161863
6.701165 -0.171640
6.717161 -0.183302
6.721170 -0.186108
6.725160 -0.167440
6.729169 -0.121851
6.733177 -0.056226
6.737165  0.015874
6.741163  0.086968
6.745169  0.162603
6.749170  0.255693
6.753175  0.375189
6.757165  0.519629
6.761170  0.677423
6.765228  0.829087
6.769166  0.950069
6.773165  1.017853
6.777170  1.023375
6.781171  0.977204
6.785162  0.901692
6.789170  0.814644
6.793172  0.718701
6.797163  0.604595
6.801163  0.465452
6.805163  0.309371
6.809163  0.156939
6.813170  0.026440
6.817163 -0.076468
6.821163 -0.157232
6.825163 -0.227657
6.829163 -0.302007
6.833164 -0.385398
6.837161 -0.458029
6.841185 -0.482071
6.845167 -0.439788
6.849141 -0.362796
6.853163 -0.313758
6.857166 -0.336767
6.861332 -0.419068
6.865156 -0.492239
6.869140 -0.487271
6.873149 -0.419174
6.925162 -0.406338
6.929414 -0.562268
6.933169 -0.866122
6.937160 -1.171373
6.941162 -1.336312
6.945161 -1.325477
6.949162 -1.201837
6.953168 -1.052099
6.957160 -0.924613
6.961175 -0.821536
6.965173 -0.729101
6.969163 -0.643384
6.973171 -0.570665
6.977171 -0.515628
6.981163 -0.476109
6.985163 -0.445925
6.989294 -0.418563
6.993165 -0.389017
6.997163 -0.353928
7.001177 -0.310566
7.005174 -0.257408
7.009170 -0.196807
7.013164 -0.134557
7.017170 -0.073947
7.021164 -0.011418
7.025288  0.058229
7.029176  0.131253
7.033165  0.194001
7.037163  0.236970
7.041171  0.267901
7.045163  0.306209
7.049164  0.363935
7.053163  0.433675
7.057163  0.494112
7.061172  0.526655
7.065170  0.530704
7.069171  0.527388
7.073170  0.546448
7.077158  0.603796
7.081168  0.690513
7.085169  0.782524
7.089160  0.856074
7.093162  0.897038
7.097160  0.908981
7.101173  0.917957
7.105173  0.958112
7.109165  1.041249
7.113155  1.144979
7.117162  1.237558
7.121161  1.307777
7.125342  1.364378
7.129161  1.413354
7.133169  1.445128
7.137159  1.444738
7.141169  1.409624
7.145171  1.354382
7.149168  1.301071
7.153163  1.266836
7.157424  1.254592
7.161315  1.249175
7.165162  1.225005
7.169618  1.164548
7.173166  1.073427
7.177173  0.975355
7.181165  0.888759
7.185170  0.811440
7.189556  0.730227
7.193148  0.639638
7.197151  0.548204
7.201168  0.470126
7.205168  0.411338
7.209162  0.362058
7.213168  0.303501
7.217163  0.223108
7.221333  0.124743
7.225432  0.025066
7.229169 -0.060723
7.233163 -0.129512
7.237163 -0.186112
7.241163 -0.231919
7.245165 -0.263347
7.249168 -0.281283
7.253167 -0.295825
7.257172 -0.317753
7.261162 -0.347427
7.265164 -0.375356
7.269162 -0.392596
7.273171 -0.396850
7.277161 -0.388766
7.281171 -0.367697
7.285164 -0.334902
7.289160 -0.298686
7.293171 -0.271501
7.297162 -0.260323
7.301173 -0.261361
7.305145 -0.263962
7.309163 -0.257101
7.313175 -0.231265
7.317165 -0.177634
7.321173 -0.093399
7.325171  0.005580
7.329297  0.083113
7.333169  0.106349
7.337162  0.071624
7.341161  0.001739
7.345161 -0.075399
7.353168 -0.139793
7.357161 -0.180354
7.361162 -0.193263
7.365434 -0.181560
7.369169 -0.155337
7.373162 -0.128819
7.377280 -0.112613
7.381362 -0.108492
7.385161 -0.113230
7.389169 -0.125045
7.393160 -0.143456
7.397231 -0.165445
7.401170 -0.186851
7.405164 -0.208181
7.409162 -0.235054
7.413164 -0.270428
7.417159 -0.308322
7.421169 -0.338069
7.425161 -0.355011
7.429161 -0.365810
7.433163 -0.381692
7.437157 -0.403305
7.441192 -0.410415
7.445171 -0.371413
7.449162 -0.269427
7.453166 -0.118774
7.457167  0.045410
7.461231  0.189990
7.465166  0.297740
7.469140  0.368907
7.473171  0.416730
7.477169  0.459730
7.481168  0.510993
7.485169  0.568802
7.489339  0.617036
7.493161  0.636462
7.497161  0.616787
7.501161  0.560565
7.505169  0.478258
7.509161  0.378581
7.513161  0.262523
7.517161  0.128744
7.521161 -0.015932
7.525175 -0.156651
7.529165 -0.282110
7.533295 -0.391094
7.537279 -0.487009
7.541169 -0.571602
7.545160 -0.646533
7.549162 -0.718018
7.553160 -0.796279
7.557162 -0.887309
7.561168 -0.982187
7.565162 -1.055718
7.569168 -1.083767
7.573173 -1.070168
7.577165 -1.056164
7.581170 -1.097665
7.585171 -1.228391
7.589163 -1.438842
7.593163 -1.680478
7.597165 -1.878025
7.601163 -1.931999
7.605171 -1.722501
7.609159 -1.144477
7.613160 -0.179662
7.617175  1.034101
7.621165  2.196891
7.625163  2.945772
7.629171  3.030223
7.633163  2.447774
7.637163  1.429027
7.641163  0.290845
7.645163 -0.714944
7.649170 -1.462226
7.653170 -1.928448
7.657166 -2.147370
7.661170 -2.175802
7.665170 -2.079646
7.669163 -1.926472
7.673165 -1.772665
7.677171 -1.648270
7.681291 -1.553471
7.685163 -1.471579
7.689163 -1.386970
7.693171 -1.294703
7.697163 -1.199565
7.701170 -1.109038
7.705171 -1.025564
7.709162 -0.944540
7.713247 -0.860891
7.717168 -0.777493
7.721164 -0.704540
7.725162 -0.648623
7.729173 -0.603454
7.733339 -0.552175
7.737159 -0.478713
7.741311 -0.380777
7.745143 -0.277173
7.749172 -0.200717
7.753168 -0.174631
7.757169 -0.187597
7.761145 -0.194760
7.765163 -0.153236
7.769171 -0.059023
7.773171  0.053435
7.777163  0.143861
7.781165  0.195384
7.785152  0.217629
7.790177  0.228366
7.793144  0.236120
7.797143  0.241604
7.801144  0.250679
7.805174  0.275770
7.809151  0.322502
7.813137  0.384906
7.817203  0.457661
7.821167  0.542907
7.825167  0.639158
7.829212  0.731348
7.833167  0.800607
7.837212  0.842419
7.841167  0.867836
7.845162  0.885807
7.849161  0.890110
7.853169  0.865675
7.857161  0.804588
7.861163  0.714650
7.865228  0.614387
7.869161  0.521275
7.873414  0.443331
7.877169  0.377679
7.881155  0.313668
7.885161  0.238517
7.889170  0.144324
7.893169  0.033049
7.897161 -0.084390
7.901161 -0.193938
7.905161 -0.284675
7.909161 -0.353731
7.913168 -0.408747
7.917161 -0.463086
7.921161 -0.524421
7.925161 -0.588180
7.929163 -0.643376
7.933169 -0.683538
7.937161 -0.711091
7.941161 -0.733044
7.945161 -0.755800
7.949161 -0.784390
7.953170 -0.821513
7.957161 -0.863103
7.961161 -0.896930
7.965161 -0.910057
7.969161 -0.899979
7.973169 -0.877642
7.977321 -0.858203
7.981161 -0.849849
7.985161 -0.851645
7.989169 -0.858708
7.993168 -0.866369
7.997169 -0.870404
8.001161 -0.867698
8.005431 -0.860382
8.009171 -0.858682
8.013163 -0.875417
8.017163 -0.913817
8.021163 -0.960476
8.025167 -0.992814
8.029168 -0.995607
8.033163 -0.971473
8.037163 -0.936516
8.041164 -0.905490
8.045197 -0.878473
8.049164 -0.839516
8.053168 -0.771493
8.057167 -0.677104
8.061140 -0.579716
8.065430 -0.497434
8.069146 -0.427125
8.073170 -0.361408
8.077166 -0.305957
8.081173 -0.269525
8.085165 -0.250565
8.089165 -0.243732
8.093172 -0.248900
8.097163 -0.264374
8.101171 -0.278086
8.105171 -0.275863
8.109160 -0.258061
8.113168 -0.240740
8.117162 -0.237886
8.121160 -0.246234
8.125162 -0.250147
8.129160 -0.239787
8.133169 -0.221150
8.137160 -0.207208
8.141162 -0.201894
8.145160 -0.195087
8.149162 -0.172515
8.153161 -0.128961
8.157167 -0.071497
8.161154 -0.010722
8.165162  0.049871
8.169160  0.115656
8.173169  0.194261
8.177160  0.290162
8.181310  0.404592
8.185161  0.534883
8.189169  0.671172
8.193291  0.798034
8.197162  0.902400
8.201160  0.977016
8.205162  1.015956
8.209168  1.012349
8.213168  0.964300
8.217161  0.881434
8.221168  0.781454
8.225162  0.677470
8.229161  0.569326
8.233161  0.448598
8.237161  0.311540
8.241169  0.166930
8.245168  0.032167
8.253168 -0.077381
8.257170 -0.155320
8.261161 -0.203474
8.265161 -0.228897
8.269169 -0.242251
8.273162 -0.254162
8.277156 -0.270457
8.281162 -0.295316
8.285161 -0.342457
8.289169 -0.436896
8.293161 -0.595033
8.297169 -0.799325
8.301392 -0.994007
8.305161 -1.101364
8.309169 -1.035065
8.313161 -0.706079
8.317161 -0.047028
8.321161  0.929632
8.325161  2.070360
8.329168  3.081124
8.333161  3.635539
8.337161  3.550115
8.341315  2.896058
8.345170  1.942741
8.349145  0.975616
8.353295  0.146699
8.357465 -0.524163
8.361165 -1.040545
8.365163 -1.366120
8.369163 -1.469879
8.373161 -1.384465
8.377161 -1.193649
8.381161 -0.982824
8.385347 -0.808020
8.389160 -0.688662
8.393163 -0.615229
8.397159 -0.565309
8.401169 -0.514509
8.405368 -0.442950
8.409161 -0.348690
8.413169 -0.254026
8.417258 -0.185816
8.421162 -0.149694
8.425169 -0.129183
8.429162 -0.105425
8.433160 -0.072044
8.437162 -0.033771
8.441160  0.003621
8.445169  0.039339
8.449160  0.074439
8.453162  0.107707
8.457160  0.139555
8.461162  0.177502
8.465168  0.231010
8.469163  0.299444
8.473160  0.369676
8.477162  0.428069
8.481160  0.472248
8.485170  0.508983
8.489161  0.543259
8.493161  0.573647
8.497161  0.598368
8.501174  0.621447
8.505165  0.649275
8.509164  0.682398
8.513164  0.714912
8.517159  0.743051
8.521169  0.770645
8.525161  0.803189
8.529162  0.838496
8.533161  0.866941
8.537161  0.881348
8.541168  0.884033
8.545161  0.882900
8.549161  0.882061
8.553161  0.877850
8.557161  0.863927
8.561169  0.839391
8.565161  0.810890
8.569162  0.785936
8.573161  0.765057
8.577161  0.742475
8.581169  0.713621
8.585168  0.678945
8.589161  0.640875
8.593169  0.603274
8.597171  0.577673
8.601215  0.581783
8.605220  0.620283
8.609173  0.669890
8.613172  0.694510
8.617170  0.676126
8.621170  0.626716
8.625145  0.573720
8.629414  0.538462
8.633166  0.524333
8.637163  0.519917
8.641166  0.514598
8.645210  0.512027
8.649164  0.522318
8.653213  0.539920
8.657164  0.542591
8.661250  0.522178
8.665306  0.506943
8.669259  0.542864
8.673214  0.658459
8.677340  0.849782
8.681226  1.081838
8.685327  1.294887
8.689331  1.430617
8.693264  1.474606
8.697243  1.470592
8.701165  1.483259
8.705367  1.544727
8.721186  1.634555
8.723775  1.703494
8.725760  1.710484
8.729172  1.642492
8.733167  1.511871
8.737162  1.342662
8.741164  1.158620
8.745170  0.977407
8.749166  0.808443
8.753164  0.653970
8.757163  0.513972
8.761163  0.389408
8.765171  0.278869
8.769163  0.175532
8.773163  0.074463
8.777163 -0.015706
8.781163 -0.075343
8.785171 -0.094559
8.789165 -0.089812
8.793163 -0.094356
8.797163 -0.130809
8.801163 -0.194970
8.805171 -0.265305
8.809170 -0.324077
8.813441 -0.367717
8.817171 -0.400322
8.821161 -0.423459
8.825161 -0.435645
8.829161 -0.439339
8.833161 -0.443841
8.837170 -0.458696
8.841161 -0.483948
8.845161 -0.508396
8.849161 -0.519414
8.853161 -0.513420
8.857175 -0.493684
8.861165 -0.459298
8.865291 -0.401803
8.869163 -0.314325
8.873175 -0.200009
8.877174 -0.068478
8.881197  0.074077
8.885170  0.227788
8.889173  0.391088
8.893290  0.551489
8.897170  0.688786
8.901168  0.792772
8.905170  0.876835
8.909172  0.964843
8.913164  1.060069
8.917158  1.134444
8.921159  1.151879
8.925408  1.094830
8.929159  0.969722
8.933163  0.801019
8.937147  0.623346
8.941164  0.468241
8.945208  0.354896
8.949357  0.295983
8.953291  0.302620
8.957195  0.372004
8.961167  0.476368
8.965285  0.575915
8.969163  0.641731
8.973253  0.665458
8.977343  0.658363
8.981256  0.645036
8.985165  0.644098
8.989160  0.645351
8.993481  0.609855
8.997202  0.497620
9.001431  0.297792
9.005159  0.035620
9.009143 -0.240584
9.013175 -0.463226
9.017173 -0.532563
9.021164 -0.322802
9.025361  0.265016
9.029162  1.222667
9.033164  2.375816
9.037162  3.400792
9.041171  3.946428
9.045162  3.812162
9.049164  3.055471
9.053162  1.937326
9.057164  0.758470
9.061162 -0.272765
9.065168 -1.065982
9.069213 -1.606743
9.073444 -1.915669
9.077306 -2.031882
9.081171 -2.008511
9.085163 -1.907302
9.089163 -1.787175
9.093163 -1.687805
9.097171 -1.618249
9.101163 -1.562298
9.105171 -1.498824
9.109164 -1.420427
9.113139 -1.335440
9.117156 -1.255934
9.121286 -1.188134
9.125171 -1.135099
9.129163 -1.103574
9.133164 -1.101153
9.137163 -1.124382
9.141163 -1.154265
9.145171 -1.169421
9.149163 -1.164139
9.153163 -1.150294
9.157165 -1.141537
9.161163 -1.138922
9.165171 -1.132644
9.169171 -1.114629
9.173163 -1.086135
9.177171 -1.052886
9.181163 -1.016562
9.185163 -0.974854
9.189164 -0.928530
9.193158 -0.883493
9.197169 -0.843686
9.201160 -0.805124
9.205162 -0.761157
9.209160 -0.712635
9.213162 -0.668393
9.217264 -0.634913
9.221166 -0.609126
9.225162 -0.583349
9.229164 -0.555302
9.233161 -0.531532
9.237161 -0.520920
9.241142 -0.524130
9.245244 -0.529417
9.249216 -0.518056
9.253222 -0.471605
9.257160 -0.379968
9.261164 -0.254423
9.265168 -0.132221
9.269141 -0.057332
9.273242 -0.051928
9.277159 -0.106930
9.281167 -0.196812
9.285158 -0.299540
 9.289160 -0.187747
 9.293158 -0.262313
 9.297160 -0.338258
 9.301166 -0.416923
 9.305160 -0.499847
 9.309160 -0.589329
 9.313160 -0.685993
 9.317160 -0.784206
 9.321169 -0.873817
 9.325393 -0.949219
 9.329162 -1.013904
 9.333160 -1.073162
 9.337170 -1.124047
 9.341160 -1.156410
 9.345162 -1.164773
 9.349160 -1.156907
 9.353162 -1.149373
 9.357170 -1.155303
 9.361163 -1.175996
 9.365160 -1.202122
 9.369162 -1.221849
 9.373160 -1.228008
 9.377169 -1.218733
 9.381161 -1.194783
 9.385162 -1.159446
 9.389160 -1.118933
 9.393162 -1.078301
 9.397170 -1.037485
 9.401162 -0.995539
 9.405160 -0.958691
 9.409337 -0.939426
 9.413160 -0.945244
 9.417169 -0.970668
 9.421160 -1.002780
 9.425169 -1.033261
 9.429162 -1.061822
 9.433162 -1.088315
 9.437168 -1.105885
 9.441162 -1.104720
 9.445160 -1.081662
 9.449162 -1.043986
 9.453160 -1.001785
 9.457169 -0.956558
 9.461160 -0.900017
 9.465162 -0.825463
 9.469160 -0.737928
 9.473163 -0.652856
 9.477168 -0.589226
 9.481164 -0.563985
 9.485162 -0.585646
 9.489164 -0.648357
 9.493162 -0.733031
 9.497171 -0.815147
 9.501163 -0.873972
 9.505164 -0.900561
 9.509162 -0.900733
 9.513165 -0.888769
 9.517170 -0.876128
 9.521164 -0.865759
 9.525170 -0.855734
 9.529164 -0.845181
 9.533162 -0.834373
 9.537165 -0.820177
 9.541172 -0.796440
 9.545167 -0.763271
 9.549174 -0.733544
 9.553171 -0.722194
 9.557170 -0.725533
 9.561174 -0.717051
 9.565291 -0.670073
 9.569363 -0.583412
 9.573161 -0.483435
 9.577161 -0.405583
 9.581169 -0.374466
 9.585161 -0.393221
 9.589161 -0.444106
 9.593161 -0.498029
 9.597159 -0.526206
 9.601168 -0.508743
 9.605162 -0.440987
 9.609160 -0.336664
 9.613163 -0.220640
 9.617160 -0.110934
 9.621169 -0.005608
 9.625168  0.110712
 9.629169  0.247779
 9.633160  0.398601
 9.637169  0.544484
 9.641160  0.666206
 9.645162  0.749246
 9.649160  0.782680
 9.653162  0.760065
 9.657168  0.684717
 9.661169  0.571158
 9.665161  0.438406
 9.669168  0.302523
 9.673161  0.174276
 9.677161  0.057594
 9.681163 -0.054138
 9.685161 -0.176419
 9.689169 -0.320658
 9.693161 -0.479848
 9.697161 -0.629305
 9.701161 -0.742666
 9.705161 -0.806599
 9.709168 -0.822560
 9.713161 -0.800098
 9.717335 -0.752877
 9.721161 -0.701498
 9.725161 -0.676626
 9.729248 -0.712866
 9.733167 -0.831910
 9.737162 -1.026232
 9.741166 -1.257295
 9.745163 -1.464997
 9.749171 -1.567646
 9.753342 -1.450797
 9.757162 -0.982251
 9.761175 -0.084372
 9.765165  1.166148
 9.769163  2.492557
 9.773171  3.496414
 9.777163  3.847686
 9.781335  3.465083
 9.785163  2.543144
 9.789163  1.411166
 9.793170  0.356522
 9.797163 -0.461363
 9.801163 -0.999652
 9.805163 -1.286210
 9.809163 -1.381237
 9.813170 -1.351498
 9.817163 -1.252342
 9.821163 -1.118305
 9.825163 -0.966818
 9.829163 -0.812645
 9.833172 -0.677918
 9.837146 -0.583553
 9.841175 -0.529447
 9.845173 -0.487124
 9.849164 -0.415119
 9.853158 -0.285013
 9.857168 -0.102460
 9.861246  0.090761
 9.865167  0.242047
 9.869143  0.323185
 9.873161  0.344002
 9.877169  0.337326
 9.881161  0.334663
 9.885161  0.351050
 9.889161  0.384566
 9.893161  0.426654
 9.897170  0.473379
 9.901171  0.527428
 9.905160  0.589495
 9.909157  0.649874
 9.913210  0.694668
 9.917167  0.723619
 9.921403  0.755686
 9.925367  0.809807
 9.929161  0.880365
 9.933161  0.935976
 9.937169  0.946309
 9.941168  0.911477
 9.945161  0.863971
 9.949161  0.839806
 9.953161  0.845784
 9.957159  0.853957
 9.961199  0.828742
 9.965161  0.761054
 9.969161  0.677641
 9.973161  0.618292
 9.977161  0.603644
 9.981168  0.621933
 9.985161  0.641897
 9.989161  0.636814
 9.993161  0.600697
 9.997161  0.547484
10.001169  0.496727
10.005168  0.458745
10.009161  0.431021
10.013161  0.404596
10.017161  0.370330
10.021168  0.321249
10.025161  0.254757
10.029161  0.175327
10.033161  0.094448
10.037168  0.026444
10.041168 -0.019291
10.045161 -0.046484
10.049161 -0.072534
10.053161 -0.115403
10.057161 -0.176397
10.061170 -0.239488
10.065168 -0.291489
10.069162 -0.339535
10.073161 -0.403668
10.077157 -0.493832
10.081168 -0.599210
10.085162 -0.700262
10.089160 -0.786211
10.093162 -0.857842
10.097175 -0.916065
10.101165 -0.952780
10.105163 -0.955719
10.109163 -0.921812
10.113171 -0.863847
10.117163 -0.802666
10.121163 -0.752344
10.125163 -0.713185
10.129163 -0.679401
10.133171 -0.650286
10.137164 -0.628471
10.141174 -0.608885
10.145234 -0.578011
10.149173 -0.526724
10.153163 -0.459566
10.157171 -0.391665
10.161161 -0.337310
10.165169 -0.294656
10.169161 -0.241428
10.173168 -0.155170
10.177163 -0.037188
10.181256  0.087952
10.185169  0.188791
10.189164  0.238935
10.193173  0.224352
10.197173  0.150880
10.201163  0.046095
10.205163 -0.053641
10.209163 -0.125938
10.213171 -0.172818
10.217165 -0.206984
10.221164 -0.231138
10.225219 -0.233912
10.229165 -0.203680
10.233171 -0.141426
10.237218 -0.060906
10.241225  0.014685
10.245163  0.053385
10.249163  0.025503
10.253163 -0.071617
10.257171 -0.200154
10.261163 -0.302075
10.265170 -0.340966
10.269173 -0.327626
10.273165 -0.303638
10.277163 -0.300642
10.281163 -0.319089
10.285252 -0.342000
10.289162 -0.357214
10.293162 -0.361603
10.297169 -0.350953
10.301161 -0.315074
10.305161 -0.246258
10.309161 -0.151455
10.313161 -0.054220
10.317168  0.018966
10.321161  0.059283
10.325161  0.083772
10.329161  0.120106
10.333161  0.181439
10.337171  0.257189
10.341163  0.328192
10.345152  0.387448
10.349168  0.444393
10.353171  0.511739
10.357169  0.589789
10.361162  0.661065
10.365160  0.698903
10.369162  0.684733
10.373168  0.620604
10.377163  0.524891
10.381160  0.416386
10.385162  0.304717
10.389160  0.193330
10.393252  0.085187
10.397168 -0.015444
10.401152 -0.103109
10.405169 -0.173788
10.409160 -0.230501
10.413158 -0.284140
10.417160 -0.345218
10.421159 -0.416016
10.425167 -0.491705
10.429159 -0.565860
10.433333 -0.633436
10.437159 -0.692454
10.441203 -0.747655
10.445169 -0.812730
10.449407 -0.904667
10.453152 -1.028738
10.457146 -1.157217
10.461163 -1.210761
10.465154 -1.065015
10.469375 -0.599363
10.473161  0.233692
10.477162  1.357013
10.481169  2.552783
10.485162  3.501769
10.489162  3.903877
10.493163  3.636796
10.497159  2.828131
10.501165  1.767156
10.505160  0.732696
10.509162 -0.121323
10.513162 -0.763947
10.517157 -1.219533
10.521165 -1.511637
10.525160 -1.650955
10.529162 -1.651043
10.533160 -1.542559
10.537162 -1.371930
10.541170 -1.188053
10.545164 -1.026940
10.549168 -0.902865
10.553164 -0.811476
10.557165 -0.741592
10.561159 -0.684341
10.565159 -0.634693
10.569159 -0.589862
10.573159 -0.547339
10.577166 -0.503065
10.581160 -0.451904
10.585159 -0.390166
10.589159 -0.316791
10.593159 -0.232144
10.597166 -0.137066
10.601159 -0.034793
10.605159  0.065141
10.609159  0.146589
10.613159  0.196361
10.617167  0.218492
10.621159  0.234177
10.625159  0.260936
10.629159  0.295191
10.633159  0.321313
10.637167  0.334092
10.641159  0.346280
10.645161  0.376055
10.649159  0.431822
10.653168  0.509511
10.657169  0.601816
10.661161  0.706566
10.665161  0.822631
10.669163  0.937473
10.673164  1.024938
10.677169  1.062734
10.681163  1.053482
10.685163  1.025008
10.689163  1.007987
10.693163  1.014885
10.697170  1.039895
10.701163  1.071775
10.705163  1.100680
10.709163  1.118196
10.713163  1.120454
10.717170  1.110625
10.721163  1.091928
10.725164  1.058946
10.729164  1.002312
10.733163  0.925168
10.737164  0.852156
10.741170  0.815896
10.745171  0.829970
10.749170  0.874916
10.753211  0.912080
10.757172  0.911273
10.761275  0.865671
10.765170  0.785279
10.769171  0.684412
10.773162  0.579157
10.777165  0.490927
10.781170  0.440832
10.785240  0.432580
10.789163  0.443340
10.793163  0.439780
10.797165  0.406713
10.801154  0.357981
10.805335  0.318399
10.813169  0.296674
10.817160  0.277717
10.821170  0.240992
10.825143  0.181431
10.829169  0.109884
10.833161  0.041013
10.837161 -0.012376
10.841161 -0.040365
10.845161 -0.042275
10.849168 -0.032126
10.853161 -0.029731
10.857169 -0.040205
10.861429 -0.044670
10.865173 -0.018276
10.869165  0.042409
10.873163  0.114475
10.877171  0.168771
10.881163  0.190634
10.885163  0.183679
10.889163  0.159611
10.893163  0.128586
10.897172  0.098702
10.901165  0.078967
10.905163  0.077499
10.909163  0.095119
10.913163  0.121148
10.917168  0.138380
10.921163  0.135828
10.925164  0.117431
10.929164  0.097577
10.933163  0.088236
10.937171  0.089313
10.941164  0.088715
10.945340  0.070849
10.949161  0.027416
10.953161 -0.036387
10.957169 -0.103541
10.961168 -0.152904
10.965162 -0.169517
10.969160 -0.153562
10.973162 -0.121009
10.977161 -0.092325
10.981171 -0.078348
10.985160 -0.076564
10.989175 -0.077567
10.993167 -0.070468
10.997164 -0.042721
11.001163  0.018849
11.005163  0.119386
11.009171  0.242949
11.013295  0.348073
11.017161  0.384391
11.021168  0.324457
11.025161  0.184810
11.029162  0.016883
11.033160 -0.122530
11.037143 -0.196151
11.041169 -0.195533
11.045302 -0.139385
11.049136 -0.059116
11.053379  0.028576
11.057165  0.135293
11.061211  0.278577
11.065167  0.452321
11.069166  0.629040
11.073159  0.784143
11.077159  0.910159
11.081166  1.013161
11.085168  1.100647
11.089173  1.169813
11.093165  1.206232
11.097163  1.196068
11.101163  1.137496
11.105173  1.037641
11.109171  0.902595
11.113164  0.736420
11.117170  0.550193
11.121164  0.366742
11.125162  0.210373
11.129165  0.089551
11.133158 -0.008365
11.137169 -0.103260
11.141160 -0.204331
11.145387 -0.307188
11.149162 -0.404799
11.153145 -0.494722
11.157143 -0.575162
11.161162 -0.640448
11.165176 -0.685898
11.169167 -0.717416
11.173160 -0.755009
11.177163 -0.826733
11.181160 -0.956420
11.185162 -1.149773
11.189168 -1.382268
11.193162 -1.588509
11.197160 -1.656491
11.201162 -1.444091
11.205161 -0.832691
11.209171  0.195209
11.213160  1.493009
11.217162  2.749067
11.221160  3.585148
11.225163  3.733392
11.229168  3.180197
11.233162  2.159832
11.237161  1.007391
11.241162 -0.003624
11.245161 -0.736479
11.249169 -1.175136
11.253161 -1.370054
11.257163 -1.391724
11.261160 -1.306577
11.265184 -1.168253
11.269173 -1.014478
11.273165 -0.866838
11.277171 -0.734765
11.281163 -0.622976
11.285163 -0.537686
11.289163 -0.485764
11.293163 -0.466578
11.297170 -0.465864
11.301254 -0.462148
11.305165 -0.442314
11.309163 -0.409360
11.313163 -0.372616
11.317430 -0.332486
11.321161 -0.279589
11.325161 -0.209236
11.329161 -0.131459
11.333161 -0.062575
11.337164 -0.006920
11.341171  0.051868
11.345161  0.139542
11.349168  0.269503
11.353171  0.433394
11.357211  0.611067
11.361318  0.781322
11.365169  0.921959
11.369173  1.011354
11.373165  1.040013
11.377163  1.020142
11.381163  0.979560
11.385163  0.944134
11.389170  0.925213
11.393164  0.921099
11.397250  0.926441
11.401171  0.938987
11.405164  0.959216
11.409171  0.985750
11.413166  1.013188
11.417166  1.036306
11.421170  1.055756
11.425171  1.076988
11.429163  1.103277
11.433164  1.131932
11.437162  1.156959
11.441167  1.171284
11.445173  1.164158
11.453162  1.121041
11.457164  1.033221
11.461158  0.909178
11.465169  0.772948
11.469160  0.648804
11.473169  0.547257
11.477160  0.464558
11.481162  0.392203
11.485168  0.324139
11.489162  0.255588
11.493160  0.178689
11.497162  0.083545
11.501160 -0.033809
11.505169 -0.164589
11.509160 -0.290220
11.513162 -0.393405
11.517160 -0.467476
11.521169 -0.518088
11.525168 -0.559056
11.529162 -0.604500
11.533160 -0.658633
11.537162 -0.711037
11.541168 -0.746076
11.545162 -0.760145
11.549160 -0.768203
11.553162 -0.791020
11.557160 -0.835213
11.561352 -0.885935
11.565165 -0.919775
11.569163 -0.925501
11.573175 -0.913487
11.577166 -0.906512
11.581163 -0.920759
11.585164 -0.952889
11.589175 -0.982290
11.593166 -0.984242
11.597164 -0.945267
11.601165 -0.874644
11.605171 -0.804996
11.609163 -0.774927
11.613163 -0.799205
11.617163 -0.851718
11.621164 -0.887959
11.625144 -0.894031
11.629476 -0.903722
11.633165 -0.954925
11.637142 -1.041416
11.641138 -1.118621
11.645194 -1.140360
11.649171 -1.083286
11.653168 -0.958488
11.657205 -0.811560
11.661170 -0.696633
11.665144 -0.638749
11.669169 -0.625390
11.673408 -0.634393
11.677169 -0.658855
11.681145 -0.702573
11.685141 -0.764741
11.689164 -0.838314
11.693160 -0.918677
11.697159 -1.007401
11.701159 -1.106322
11.705166 -1.209109
11.709159 -1.300197
11.713159 -1.363004
11.717176 -1.389267
11.721164 -1.382591
11.725170 -1.357020
11.729171 -1.331157
11.733162 -1.316372
11.737164 -1.306579
11.741163 -1.283731
11.745173 -1.238868
11.749165 -1.187456
11.753163 -1.160467
11.757169 -1.179475
11.761163 -1.240366
11.765335 -1.317949
11.769161 -1.383427
11.773161 -1.419382
11.777181 -1.423012
11.781166 -1.400290
11.785172 -1.359490
11.789163 -1.307043
11.793165 -1.243486
11.797173 -1.161076
11.801163 -1.047762
11.805163 -0.897778
11.809175 -0.722946
11.813167 -0.555477
11.817163 -0.436059
11.821176 -0.393061
11.825171 -0.428432
11.829338 -0.520262
11.833163 -0.637860
11.837163 -0.756820
11.841163 -0.864477
11.845170 -0.957542
11.849163 -1.039331
11.853163 -1.117499
11.857163 -1.199248
11.861163 -1.285800
11.865171 -1.369841
11.869163 -1.437238
11.873164 -1.473470
11.877158 -1.473317
11.881168 -1.447854
11.885381 -1.421520
11.889161 -1.419092
11.893161 -1.454484
11.897161 -1.534053
11.901161 -1.668001
11.905168 -1.870099
11.909161 -2.141201
11.913161 -2.453592
11.917161 -2.747995
11.921163 -2.934984
11.925169 -2.896347
11.929161 -2.505300
11.933163 -1.683558
11.937162 -0.480452
11.941200  0.875273
11.945167  2.014807
11.949503  2.585505
11.953142  2.442560
11.957139  1.722723
11.961161  0.735511
11.965167 -0.226847
11.969165 -1.009311
11.973153 -1.585818
11.977162 -1.981437
11.981155 -2.217357
11.985171 -2.310960
11.989163 -2.293262
11.993204 -2.205264
11.997170 -2.079408
12.001241 -1.932139
12.005212 -1.773897
12.009169 -1.619460
12.013364 -1.482478
12.017165 -1.360759
12.021164 -1.235877
12.025160 -1.095572
12.029161 -0.954949
12.033158 -0.847740
12.037169 -0.794147
12.041160 -0.782054
12.045162 -0.782244
12.049161 -0.777554
12.053164 -0.772384
12.057168 -0.775732
12.061162 -0.783227
12.065174 -0.781551
12.069173 -0.765031
12.073163 -0.738376
12.077171 -0.704146
12.081395 -0.656316
12.085169 -0.589545
12.089161 -0.511560
12.093173 -0.441657
12.097165 -0.393058
12.101163 -0.357569
12.105163 -0.313053
12.109163 -0.247294
12.113162 -0.168751
12.117165 -0.090544
12.121286 -0.010185
12.125169  0.086220
12.129168  0.201236
12.133162  0.318126
12.137170  0.420030
12.141162  0.509686
12.145162  0.602266
12.149162  0.701591
12.153162  0.793477
12.157169  0.866051
12.161160  0.928692
12.165224  1.004010
12.169168  1.104331
12.173161  1.221342
12.177161  1.337229
12.181161  1.440566
12.185162  1.529837
12.189173  1.606365
12.193165  1.669367
12.197163  1.717269
12.201163  1.748933
12.205163  1.760875
12.209170  1.745249
12.213163  1.695355
12.217163  1.615325
12.221163  1.520949
12.225163  1.427556
12.229171  1.338794
12.233163  1.250049
12.237158  1.161800
12.241142  1.085916
12.245202  1.036625
12.249169  1.017413
12.253143  1.019352
12.257140  1.029420
12.261271  1.036441
12.265165  1.032598
12.269147  1.017657
12.273594  1.002736
12.277167  1.002225
12.281169  1.018346
12.285161  1.036853
12.289175  1.039180
12.293165  1.018504
12.297171  0.985279
12.301171  0.957689
12.305163  0.945876
12.309163  0.944024
12.313164  0.936335
12.317163  0.911276
12.321170  0.871552
12.325163  0.830546
12.329163  0.800010
12.333163  0.782764
12.337163  0.774867
12.341384  0.769412
12.345237  0.758064
12.349162  0.734813
12.353161  0.700944
12.357169  0.664876
12.361161  0.637825
12.365161  0.628705
12.369161  0.638409
12.373170  0.658189
12.377161  0.676542
12.381161  0.687464
12.385161  0.690601
12.389161  0.685608
12.393173  0.670071
12.397351  0.643825
12.401163  0.611836
12.405164  0.579219
12.409165  0.545681
12.413171  0.509820
12.417163  0.477471
12.421164  0.459337
12.425175  0.458686
12.429165  0.466123
12.433163  0.469626
12.437175  0.466841
12.441165  0.464331
12.445163  0.466960
12.449163  0.471802
12.453163  0.472308
12.457171  0.465737
12.461163  0.455607
12.473162  0.448379
12.477168  0.448732
12.481164  0.456216
12.485170  0.463850
12.489164  0.461298
12.493170  0.445314
12.497169  0.430425
12.501161  0.444517
12.505277  0.506072
12.509171  0.604653
12.513303  0.708771
12.517162  0.794716
12.521168  0.865134
12.525162  0.940298
12.529160  1.036323
12.533162  1.152311
12.537159  1.272878
12.541171  1.380861
12.545171  1.471907
12.549150  1.558795
12.553171  1.659797
12.557162  1.782004
12.561238  1.912179
12.565369  2.018131
12.569159  2.061616
12.573165  2.018911
12.577154  1.895919
12.581162  1.726644
12.585161  1.554806
12.589169  1.409307
12.593161  1.291133
12.597299  1.182353
12.601170  1.067271
12.605166  0.945647
12.609171  0.830566
12.613163  0.738965
12.617163  0.683228
12.621163  0.664044
12.625163  0.662799
12.629171  0.641410
12.633163  0.561035
12.637163  0.411085
12.641163  0.222162
12.645163  0.057010
12.649171  0.003000
12.653163  0.173146
12.657163  0.684620
12.661163  1.591892
12.665163  2.801990
12.669171  4.039250
12.673163  4.923748
12.677163  5.155818
12.681165  4.685525
12.685165  3.724055
12.689170  2.593387
12.693164  1.557121
12.697162  0.753959
12.701171  0.223963
12.705245 -0.049084
12.709164 -0.116415
12.713162 -0.050104
12.717159  0.077937
12.721161  0.216158
12.725170  0.341108
12.729161  0.450670
12.733161  0.549599
12.737161  0.638393
12.741161  0.712232
12.745169  0.765100
12.749161  0.790804
12.753164  0.782878
12.757142  0.740286
12.761141  0.674836
12.765153  0.607722
12.769167  0.555076
12.773160  0.519361
12.777159  0.495900
12.781160  0.482547
12.785158  0.480122
12.789167  0.488355
12.793158  0.506389
12.797160  0.535975
12.801168  0.579932
12.805162  0.635051
12.809168  0.687889
12.813162  0.721515
12.817160  0.728910
12.821164  0.718615
12.825175  0.705837
12.829164  0.700916
12.833145  0.710557
12.837152  0.744685
12.841280  0.804882
12.845303  0.856851
12.849166  0.832912
12.853132  0.699203
12.857162  0.533591
12.861200  0.492756
12.865162  0.656335
12.869415  0.932979
12.873160  1.158423
12.877165  1.251307
12.881160  1.246762
12.885159  1.220475
12.889168  1.214546
12.893171  1.220059
12.897162  1.203867
12.901159  1.143859
12.905146  1.044806
12.909225  0.931061
12.913164  0.830712
12.917137  0.761175
12.921169  0.718679
12.925161  0.681659
12.929173  0.630241
12.933165  0.559790
12.937164  0.474441
12.941163  0.375880
12.945163  0.263050
12.949171  0.139140
12.953163  0.015815
12.957204 -0.090187
12.961575 -0.167278
12.965161 -0.219357
12.969161 -0.266522
12.973161 -0.332291
12.977168 -0.426077
12.981161 -0.537648
12.985162 -0.650081
12.989161 -0.755398
12.993161 -0.854807
12.997171 -0.948863
13.001161 -1.034405
13.005161 -1.109910
13.009170 -1.177861
13.013176 -1.240456
13.017171 -1.296347
13.021163 -1.343061
13.025163 -1.380679
13.029163 -1.410401
13.033173 -1.428467
13.037165 -1.424803
13.041163 -1.392913
13.045175 -1.342366
13.049165 -1.297314
13.053163 -1.277488
13.057163 -1.280001
13.061171 -1.283447
13.065170 -1.271406
13.069164 -1.250383
13.073163 -1.244364
13.077166 -1.272318
13.081168 -1.330576
13.085164 -1.397075
13.089170 -1.451691
13.093172 -1.489229
13.097164 -1.513294
13.101171 -1.524906
13.105163 -1.521811
13.109170 -1.504817
13.113171 -1.479495
13.117163 -1.452389
13.121163 -1.428947
13.125163 -1.414783
13.129163 -1.413858
13.133171 -1.420405
13.137164 -1.414208
13.141288 -1.372041
13.145162 -1.289895
13.149277 -1.192139
13.153167 -1.114997
13.157141 -1.080921
13.161139 -1.088424
13.165168 -1.122448
13.169170 -1.169537
13.173162 -1.220227
13.177162 -1.260188
13.181173 -1.270956
13.185174 -1.247936
13.189161 -1.211387
13.193168 -1.190110
13.197158 -1.195609
13.201161 -1.216354
13.205161 -1.234755
13.209161 -1.244623
13.213168 -1.250614
13.217161 -1.253910
13.221161 -1.243602
13.225162 -1.204525
13.229169 -1.132026
13.233161 -1.037938
13.237161 -0.944287
13.241161 -0.871423
13.245161 -0.826778
13.249169 -0.799539
13.253162 -0.766542
13.257161 -0.707863
13.261161 -0.621636
13.265161 -0.527820
13.269168 -0.458025
13.273163 -0.436480
13.277161 -0.464883
13.281161 -0.524576
13.285161 -0.594675
13.289169 -0.668322
13.293162 -0.752103
13.297161 -0.852304
13.301162 -0.963941
13.305161 -1.072461
13.309168 -1.163546
13.313170 -1.230406
13.317159 -1.274473
13.321161 -1.303580
13.325175 -1.329871
13.329165 -1.363887
13.333163 -1.405477
13.337175 -1.441096
13.341165 -1.454463
13.345163 -1.444096
13.349163 -1.432840
13.353171 -1.459768
13.357163 -1.557068
13.361163 -1.724004
13.365259 -1.910704
13.373171 -2.016876
13.377163 -1.906963
13.381165 -1.449915
13.385163 -0.588602
13.389175  0.584762
13.393165  1.804056
13.397163  2.709855
13.401163  3.021072
13.405171  2.684654
13.409163  1.881120
13.413163  0.891036
13.417170 -0.052046
13.421376 -0.821363
13.425162 -1.375622
13.429363 -1.716879
13.433144 -1.865760
13.437149 -1.854316
13.441160 -1.723623
13.445436 -1.519470
13.449212 -1.286437
13.453165 -1.061643
13.457166 -0.868935
13.461234 -0.715752
13.465166 -0.596443
13.469143 -0.501543
13.473171 -0.424127
13.477299 -0.357286
13.481287 -0.291035
13.485164 -0.218074
13.489175 -0.142421
13.493165 -0.079060
13.497163 -0.043522
13.501171 -0.040622
13.505338 -0.061277
13.509161 -0.088812
13.513161 -0.109057
13.517161 -0.116432
13.521170 -0.112638
13.525163 -0.101863
13.529163 -0.087919
13.533163 -0.073917
13.537163 -0.062434
13.541170 -0.055190
13.545163 -0.051583
13.549163 -0.046262
13.553163 -0.028606
13.557163  0.012519
13.561170  0.079846
13.565163  0.161066
13.569163  0.232160
13.573163  0.272580
13.577164  0.281598
13.581170  0.279525
13.585170  0.291475
13.589165  0.329444
13.593163  0.387762
13.597163  0.451919
13.601163  0.509073
13.605173  0.550839
13.609165  0.571996
13.613163  0.573375
13.617171  0.566057
13.621172  0.566420
13.625163  0.581844
13.629163  0.601050
13.633163  0.600898
13.637171  0.565294
13.641163  0.500062
13.645163  0.429951
13.649163  0.379658
13.653163  0.356785
13.657173  0.350824
13.661163  0.343639
13.665163  0.319409
13.669163  0.269706
13.673163  0.195675
13.677168  0.108144
13.681165  0.023415
13.685161 -0.045307
13.689161 -0.093961
13.693385 -0.125867
13.697165 -0.147307
13.701163 -0.166233
13.705163 -0.191005
13.709171 -0.225613
13.713163 -0.265667
13.717163 -0.300842
13.721163 -0.321891
13.725171 -0.325020
13.729171 -0.310808
13.733174 -0.280810
13.737162 -0.235217
13.741301 -0.172876
13.745214 -0.093569
13.749287 -0.000050
13.753169  0.102805
13.757218  0.210436
13.761169  0.318980
13.765199  0.422065
13.769170  0.507100
13.773163  0.558183
13.777163  0.567399
13.781163  0.542820
13.785172  0.501478
13.789163  0.455143
13.793163  0.406660
13.797158  0.358410
13.801162  0.317584
13.805168  0.290056
13.809337  0.272583
13.813160  0.255517
13.817161  0.233657
13.821161  0.211346
13.825175  0.194528
13.829166  0.180497
13.833163  0.159847
13.837164  0.127300
13.841162  0.087457
13.845171  0.051577
13.849162  0.030439
13.853170  0.028246
13.857171  0.042429
13.861163  0.069104
13.865163  0.105428
13.869175  0.145291
13.873172  0.177210
13.877334  0.190309
13.881168  0.181711
13.885162  0.157851
13.889162  0.130942
13.893162  0.114299
13.897428  0.116483
13.901166  0.135158
13.905163  0.157208
13.909164  0.169809
13.913170  0.174403
13.917164  0.188091
13.921162  0.228119
13.925164  0.294111
13.929172  0.367414
13.933164  0.429600
13.937173  0.480987
13.941165  0.540176
13.945170  0.625923
13.949163  0.739422
13.953163  0.863136
13.957163  0.975338
13.961163  1.063505
13.965171  1.122481
13.969163  1.144055
13.973170  1.116841
13.977171  1.040475
13.981162  0.935472
13.985165  0.832246
13.989175  0.748152
13.993165  0.675615
13.997163  0.589830
14.001163  0.465722
14.005164  0.294808
14.013163  0.097891
14.017163 -0.078324
14.021168 -0.191220
14.025267 -0.239854
14.029160 -0.267869
14.033170 -0.317374
14.037144 -0.377530
14.041218 -0.388646
14.045169 -0.306996
14.049196 -0.162129
14.053166 -0.041107
14.057234 -0.018984
14.061321 -0.108239
14.065168 -0.259145
14.069150 -0.381980
14.073156 -0.359959
14.077162 -0.063573
14.081164  0.603069
14.085166  1.624017
14.089160  2.811175
14.093162  3.831445
14.097164  4.346880
14.101166  4.194492
14.105296  3.468172
14.109162  2.434839
14.113160  1.366591
14.117165  0.429175
14.121165 -0.318721
14.125162 -0.868936
14.129160 -1.223288
14.133167 -1.390377
14.137170 -1.397278
14.141165 -1.292874
14.145159 -1.136687
14.149161 -0.979483
14.153159 -0.849035
14.157175 -0.750550
14.161165 -0.677313
14.165163 -0.620972
14.169171 -0.577196
14.173163 -0.546860
14.177163 -0.532393
14.181163 -0.531240
14.185145 -0.532993
14.189175 -0.524972
14.193173 -0.501629
14.197172 -0.467963
14.201607 -0.433975
14.205165 -0.406834
14.209155 -0.387984
14.213161 -0.374785
14.217161 -0.362136
14.221169 -0.344633
14.225161 -0.321717
14.229161 -0.300538
14.233163 -0.289799
14.237169 -0.289649
14.241168 -0.290829
14.245161 -0.286506
14.249161 -0.282677
14.253161 -0.292304
14.257161 -0.318975
14.261169 -0.349578
14.265161 -0.363673
14.269161 -0.348909
14.273161 -0.308625
14.277161 -0.257014
14.281169 -0.208355
14.285161 -0.170510
14.289161 -0.145299
14.293163 -0.130641
14.297162 -0.121700
14.301169 -0.112909
14.305161 -0.101179
14.309161 -0.087106
14.313161 -0.204682
14.317163 -0.205211
14.321168 -0.203244
14.325179 -0.197562
14.329161 -0.188959
14.333162 -0.179997
14.337170 -0.174211
14.341243 -0.175017
14.345166 -0.183355
14.349164 -0.194084
14.353207 -0.195606
14.357163 -0.177488
14.361141 -0.141924
14.365167 -0.107456
14.369168 -0.099423
14.373170 -0.135095
14.377168 -0.215988
14.381162 -0.330777
14.385160 -0.462722
14.389412 -0.595201
14.393166 -0.713713
14.397159 -0.807470
14.401160 -0.873288
14.405163 -0.917863
14.409162 -0.953831
14.413169 -0.992791
14.417160 -1.040741
14.421162 -1.096859
14.425162 -1.154898
14.429163 -1.206551
14.433168 -1.245130
14.437162 -1.267922
14.441161 -1.276444
14.445334 -1.275099
14.449161 -1.269385
14.453169 -1.263824
14.457161 -1.259534
14.461162 -1.253760
14.465160 -1.243647
14.469162 -1.231015
14.473168 -1.221162
14.477162 -1.215288
14.481161 -1.206155
14.485162 -1.184379
14.489161 -1.148331
14.493169 -1.104922
14.497161 -1.061804
14.501163 -1.022771
14.505160 -0.989753
14.509162 -0.963741
14.513170 -0.942056
14.517161 -0.918404
14.521161 -0.887852
14.525161 -0.849667
14.529419 -0.803813
14.533169 -0.747431
14.537161 -0.678517
14.541161 -0.603247
14.545168 -0.537056
14.549161 -0.495832
14.553168 -0.484425
14.557163 -0.493406
14.561161 -0.507060
14.565161 -0.514645
14.569161 -0.514695
14.573169 -0.509798
14.577161 -0.498988
14.581161 -0.477331
14.585162 -0.443713
14.589161 -0.406723
14.593170 -0.379528
14.597163 -0.368776
14.601163 -0.370659
14.605163 -0.376934
14.609163 -0.380865
14.613171 -0.375740
14.617163 -0.350724
14.621163 -0.293690
14.625163 -0.202303
14.629163 -0.091745
14.633170  0.013104
14.637163  0.096965
14.641170  0.168335
14.645173  0.256563
14.649173  0.390319
14.653170  0.570702
14.657160  0.767719
14.661159  0.948856
14.665165  1.104594
14.669168  1.239446
14.673169  1.346728
14.677160  1.404762
14.681229  1.397274
14.685165  1.327563
14.689161  1.212266
14.693161  1.070744
14.697161  0.921983
14.701175  0.783012
14.705165  0.663088
14.709163  0.559734
14.713171  0.464364
14.717163  0.371522
14.721163  0.279340
14.725163  0.183734
14.729163  0.079900
14.733171 -0.028448
14.737163 -0.126890
14.741163 -0.202386
14.745163 -0.258002
14.749170 -0.313637
14.753162 -0.390486
14.757167 -0.496366
14.761367 -0.628143
14.765162 -0.780986
14.769161 -0.939381
14.773163 -1.047367
14.777332 -0.988820
14.781168 -0.616031
14.785168  0.167180
14.789162  1.310490
14.793168  2.575803
14.797162  3.598651
14.801161  4.049326
14.805162  3.806563
14.809160  3.011337
14.813169  1.955498
14.817168  0.909207
14.821162  0.024492
14.825168 -0.651842
14.829162 -1.120445
14.833160 -1.393448
14.837162 -1.493041
14.841160 -1.459997
14.845287 -1.350582
14.849171 -1.220098
14.853161 -1.103591
14.857161 -1.006918
14.861168 -0.916192
14.865161 -0.819393
14.869161 -0.720989
14.873161 -0.635927
14.877291 -0.571554
14.881165 -0.519344
14.885163 -0.464957
14.889164 -0.402938
14.893171 -0.339461
14.897165 -0.283442
14.901259 -0.239222
14.905163 -0.207593
14.909163 -0.187980
14.913171 -0.175578
14.917163 -0.159426
14.921163 -0.128522
14.925164 -0.081128
14.929170 -0.026456
14.933170  0.024307
14.937162  0.071051
14.941301  0.132216
14.945171  0.236625
14.949145  0.395503
14.953163  0.574611
14.957303  0.708449
14.961168  0.759794
14.965162  0.754093
14.969169  0.742440
14.973161  0.749353
14.977161  0.768150
14.981161  0.786623
14.985169  0.801714
14.989161  0.817179
14.993160  0.837684
14.997158  0.865432
15.001230  0.898013
15.005161  0.927696
15.009161  0.943681
15.013161  0.936685
15.017168  0.904288
15.021163  0.853939
15.025161  0.799835
15.029161  0.755561
15.033161  0.728766
15.037205  0.720299
15.041172  0.727935
15.045168  0.753029
15.049159  0.799844
15.053164  0.862503
15.057347  0.917161
15.061161  0.934649
15.065170  0.900526
15.069161  0.823084
15.073161  0.726325
15.077161  0.634527
15.081173  0.557541
15.085166  0.486755
15.089164  0.405051
15.093171  0.302658
15.097163  0.185887
15.101163  0.071792
15.105164 -0.026976
15.109161 -0.113120
15.113162 -0.198394
15.117166 -0.284789
15.121156 -0.354990
15.125161 -0.385789
15.129161 -0.371438
15.133169 -0.331837
15.137161 -0.297912
15.141161 -0.290231
15.145163 -0.309026
15.149161 -0.338246
15.153169 -0.356332
15.157169 -0.347552
15.161161 -0.309430
15.165161 -0.253469
15.169161 -0.199485
15.173169 -0.164733
15.177161 -0.152371
15.181161 -0.148908
15.185162 -0.135288
15.189161 -0.103356
15.193418 -0.062676
15.197169 -0.031238
15.201155 -0.020878
15.205161 -0.032198
15.209227 -0.058816
15.213173 -0.092130
15.217165 -0.124417
15.221163 -0.151646
15.225171 -0.173457
15.229163 -0.189574
15.233162 -0.198151
15.237157 -0.198709
15.241171 -0.192390
15.245162 -0.175335
15.249139 -0.136833
15.253164 -0.071423
15.257163  0.009488
15.261157  0.083551
15.265169  0.133625
15.269144  0.156723
15.273161  0.161236
15.277161  0.157728
15.281161  0.149517
15.285175  0.129575
15.289165  0.087910
15.293163  0.024238
15.297171 -0.046691
15.301163 -0.104000
15.305165 -0.136595
15.309170 -0.151043
15.313170 -0.163514
15.317163 -0.184576
15.321163 -0.213703
15.325163 -0.247623
15.329164 -0.287774
15.333171 -0.333890
15.337163 -0.372711
15.341163 -0.380388
15.345163 -0.338878
15.349170 -0.248785
15.353165 -0.127982
15.357163 -0.000474
15.361167  0.116313
15.365173  0.219709
15.369354  0.320203
15.373169  0.429380
15.377161  0.546083
15.381168  0.653145
15.385170  0.727408
15.389161  0.753741
15.393162  0.732674
15.397161  0.677037
15.401162  0.600376
15.405168  0.507320
15.409162  0.395058
15.413160  0.263114
15.417296  0.119868
15.421169 -0.020201
15.425162 -0.144292
15.429160 -0.246940
15.433162 -0.329924
15.437160 -0.397874
15.441169 -0.454900
15.445160 -0.504783
15.449162 -0.550062
15.453161 -0.586649
15.457162 -0.602449
15.461159 -0.590435
15.465154 -0.566003
15.469555 -0.564812
15.473148 -0.619563
15.477135 -0.740616
15.481136 -0.916765
15.485151 -1.127038
15.489160 -1.343442
15.493156 -1.512741
15.497169 -1.531260
15.501160 -1.252543
15.505162 -0.556506
15.509160  0.544825
15.513162  1.839873
15.517296  2.961699
15.521168  3.550685
15.525162  3.442243
15.529171  2.740408
15.533162  1.724226
15.537165  0.679448
15.541163 -0.210566
15.545199 -0.870258
15.549167 -1.284590
15.553145 -1.465046
15.557153 -1.449232
15.561163 -1.306849
15.565390 -1.121912
15.569392 -0.959232
15.573163 -0.845939
15.577161 -0.778638
15.581161 -0.740951
15.585168 -0.715117
15.589161 -0.685373
15.593162 -0.640506
15.597161 -0.578875
15.601161 -0.510531
15.605169 -0.452023
15.609161 -0.416419
15.613161 -0.404629
15.617161 -0.404268
15.621161 -0.398517
15.625168 -0.378866
15.629161 -0.349891
15.633161 -0.321130
15.637161 -0.295667
15.641161 -0.268751
15.645168 -0.236873
15.649161 -0.204434
15.653169 -0.178446
15.657161 -0.158113
15.661161 -0.134461
15.665169 -0.101942
15.669161 -0.066116
15.673169 -0.035336
15.677161 -0.007008
15.681161  0.031811
15.685169  0.088817
15.689162  0.155491
15.693161  0.214294
15.697161  0.256313
15.701161  0.291060
15.705169  0.337999
15.709161  0.407676
15.713163  0.491615
15.717159  0.570120
15.721340  0.627458
15.725168  0.659695
15.729161  0.672519
15.733161  0.675488
15.737161  0.677630
15.741161  0.684230
15.745168  0.694240
15.749161  0.700715
15.753161  0.695594
15.757162  0.675250
15.761161  0.641916
15.765168  0.599512
15.769162  0.547615
15.773161  0.481303
15.777169  0.399291
15.781161  0.310250
15.785169  0.227225
15.789162  0.156179
15.793161  0.092513
15.797161  0.028148
15.801161 -0.040685
15.805171 -0.112951
15.809161 -0.186845
15.813163 -0.261167
15.817161 -0.333205
15.821161 -0.398271
15.825168 -0.452613
15.829161 -0.494559
15.833175 -0.520935
15.837164 -0.525270
15.841284 -0.504637
15.845171 -0.468426
15.849173 -0.435637
15.853143 -0.420602
15.857172 -0.421929
15.861144 -0.424710
15.865145 -0.411838
15.869171 -0.375079
15.873173 -0.319541
15.877165 -0.260530
15.881163 -0.217319
15.885165 -0.206740
15.889163 -0.233757
15.893171 -0.281713
15.897165 -0.316013
15.901172 -0.307652
15.905162 -0.258346
15.909155 -0.199047
15.913162 -0.160833
15.917174 -0.150802
15.921166 -0.156520
15.925163 -0.165980
15.929175 -0.177487
15.933165 -0.192264
15.937163 -0.202759
15.941175 -0.192778
15.945173 -0.151009
15.949162 -0.082459
15.953153 -0.004964
15.957167  0.063202
15.961141  0.110518
15.965161  0.130137
15.969161  0.116161
15.973169  0.066844
15.977169 -0.008307
15.981327 -0.089890
15.985161 -0.160822
15.989161 -0.215387
15.993170 -0.255460
15.997161 -0.282518
16.001161 -0.296737
16.005161 -0.301146
16.009161 -0.302367
16.013171 -0.305851
16.017161 -0.311233
16.021163 -0.313563
16.025161 -0.309636
16.029161 -0.302573
16.033168 -0.299412
16.037169 -0.304403
16.041152 -0.315163
16.045167 -0.324518
16.049160 -0.324729
16.053158 -0.311433
16.057160 -0.288404
16.061424 -0.271292
16.065354 -0.281068
16.069160 -0.324663
16.073164 -0.381360
16.077168 -0.414357
16.081169 -0.398313
16.085163 -0.336592
16.089161 -0.255691
16.093161 -0.183876
16.097161 -0.128726
16.101169 -0.068102
16.105191  0.036293
16.109171  0.208392
16.113161  0.434946
16.117161  0.671663
16.121168  0.868263
16.125161  0.987897
16.129161  1.016043
16.133169  0.964127
16.137164  0.863266
16.141300  0.748702
16.145169  0.647515
16.149256  0.573236
16.153313  0.521992
16.157144  0.474911
16.161251  0.413289
16.165171  0.334691
16.169141  0.251708
16.173169  0.175924
16.177161  0.108393
16.181379  0.045083
16.185163 -0.016486
16.189157 -0.077554
16.193150 -0.137980
16.197162 -0.193499
16.201155 -0.237802
16.205161 -0.271356
16.209156 -0.309289
16.213161 -0.379426
16.217168 -0.508590
16.221161 -0.705423
16.225161 -0.950963
16.229161 -1.195883
16.233161 -1.352999
16.237168 -1.292349
16.241161 -0.871449
16.245169 -0.014614
16.249170  1.196872
16.253161  2.491075
16.257169  3.480947
16.261161  3.841551
16.265161  3.485053
16.269161  2.594332
16.273162  1.489882
16.277169  0.454221
16.281166 -0.356146
16.285170 -0.897141
16.289164 -1.188213
16.293170 -1.278592
16.297164 -1.232124
16.301162 -1.116766
16.305164 -0.992010
16.309163 -0.895079
16.313171 -0.832252
16.317163 -0.784376
16.321164 -0.726794
16.325162 -0.650103
16.329164 -0.566312
16.333170 -0.496368
16.337164 -0.450326
16.341162 -0.419398
16.345164 -0.387631
16.349162 -0.348328
16.353171 -0.305967
16.357162 -0.264938
16.361164 -0.222667
16.365163 -0.174938
16.369164 -0.122907
16.373170 -0.070696
16.377166 -0.017582
16.381162  0.042323
16.385171  0.109910
16.389162  0.173652
16.393171  0.216669
16.397162  0.231489
16.401164  0.225518
16.405162  0.212619
16.409164  0.203925
16.413173  0.207291
16.417164  0.228541
16.421163  0.268024
16.425164  0.317081
16.429162  0.361327
16.433165  0.392421
16.437166  0.419519
16.441160  0.465471
16.445157  0.548155
16.449195  0.667490
16.453164  0.810022
16.457397  0.959485
16.461158  1.100456
16.465161  1.216936
16.469160  1.292790
16.473162  1.317295
16.477162  1.293238
16.481168  1.238806
16.485338  1.177064
16.489168  1.120275
16.493847  1.064465
16.497163  0.999127
16.501171  0.919270
16.505163  0.827105
16.509163  0.727119
16.513163  0.623926
16.517163  0.522642
16.521173  0.427076
16.525165  0.336049
16.529163  0.243041
16.533170  0.142594
16.537163  0.037972
16.541163 -0.059381
16.545163 -0.138490
16.549163 -0.196821
16.553164 -0.242098
16.557167 -0.288267
16.561155 -0.347844
16.565161 -0.424380
16.573169 -0.509237
16.577333 -0.585781
16.581161 -0.640966
16.585161 -0.675867
16.589161 -0.703835
16.593168 -0.737940
16.597161 -0.781389
16.601161 -0.827811
16.605161 -0.866444
16.609161 -0.887350
16.613169 -0.885505
16.617161 -0.862309
16.621161 -0.823676
16.625161 -0.776083
16.629161 -0.723145
16.633170 -0.664752
16.637161 -0.598837
16.641168 -0.524788
16.645163 -0.447400
16.649169 -0.378582
16.653161 -0.333261
16.657161 -0.320333
16.661161 -0.335534
16.665161 -0.363134
16.669175 -0.386216
16.673164 -0.396925
16.677159 -0.397381
16.681169 -0.393151
16.685161 -0.389213
16.689161 -0.389747
16.693169 -0.396614
16.697161 -0.407943
16.701162 -0.419925
16.705169 -0.429745
16.709161 -0.436400
16.713163 -0.438002
16.717161 -0.428976
16.721169 -0.403752
16.725161 -0.365481
16.729161 -0.328488
16.733161 -0.309154
16.737162 -0.313795
16.741163 -0.334353
16.745141 -0.354119
16.749321 -0.359006
16.753169 -0.346734
16.757150 -0.325850
16.761169 -0.304395
16.765200 -0.280346
16.769169 -0.245268
16.773165 -0.195964
16.777160 -0.137597
16.781168 -0.074571
16.785169 -0.005975
16.789283  0.064694
16.793158  0.122475
16.797164  0.151376
16.801146  0.148021
16.805473  0.120984
16.809169  0.082250
16.813160  0.043052
16.817162  0.012133
16.821161 -0.008666
16.825164 -0.026791
16.829170 -0.052850
16.833162 -0.089466
16.837160 -0.125866
16.841162 -0.143984
16.845160 -0.131098
16.849169 -0.088814
16.853160 -0.030870
16.857172  0.028919
16.861171  0.087301
16.865163  0.150568
16.869163  0.224671
16.873163  0.307664
16.877163  0.390895
16.881170  0.465032
16.885163  0.522051
16.889163  0.552670
16.893163  0.548968
16.897171  0.513130
16.901170  0.458850
16.905170  0.399283
16.909159  0.334146
16.913161  0.251395
16.917169  0.142527
16.921155  0.013814
16.925161 -0.118598
16.929168 -0.239905
16.933169 -0.340415
16.937160 -0.414904
16.941162 -0.465310
16.945160 -0.501786
16.949329 -0.534119
16.953170 -0.559967
16.957162 -0.565652
16.961160 -0.542726
16.965162 -0.504103
16.969162 -0.482579
16.973170 -0.512434
16.977160 -0.609841
16.981162 -0.766222
16.985160 -0.951913
16.989162 -1.112362
16.993168 -1.152678
16.997162 -0.941029
17.001168 -0.361958
17.005327  0.597087
17.009160  1.782080
17.013171  2.885731
17.017160  3.560944
17.021162  3.591930
17.025160  3.007084
17.029163  2.040961
17.033168  0.986144
17.037163  0.062379
17.041204 -0.624075
17.045161 -1.053488
17.049153 -1.249977
17.053194 -1.254793
17.057171 -1.121304
17.061161 -0.915446
17.065167 -0.704405
17.069172 -0.537224
17.073162 -0.432587
17.077162 -0.381667
17.081160 -0.362921
17.085171 -0.357920
17.089162 -0.357321
17.093159 -0.357050
17.097160 -0.353877
17.101162 -0.345939
17.105168 -0.335157
17.109162 -0.326473
17.113162 -0.323414
17.117162 -0.323910
17.121160 -0.320360
17.125169 -0.304354
17.129160 -0.272613
17.133164 -0.228688
17.137160 -0.178333
17.141162 -0.124464
17.145168 -0.068244
17.149162 -0.013287
17.153168  0.034032
17.157169  0.068454
17.161163  0.088927
17.165162  0.098500
17.169160  0.103272
17.173163  0.111784
17.177160  0.131777
17.181169  0.163548
17.185155  0.197282
17.189161  0.221107
17.193161  0.233272
17.197168  0.244823
17.201162  0.269765
17.205172  0.313234
17.209161  0.369040
17.213157  0.427435
17.217168  0.483065
17.221162  0.534491
17.225160  0.578642
17.229175  0.609631
17.233165  0.625088
17.237163  0.633105
17.241163  0.648890
17.245163  0.680523
17.249175  0.718329
17.253165  0.739893
17.257163  0.726035
17.261172  0.674611
17.265163  0.601861
17.269163  0.528899
17.273163  0.464429
17.277163  0.401763
17.281171  0.332358
17.285163  0.256995
17.289163  0.181204
17.293163  0.104419
17.297163  0.018912
17.301171 -0.079934
17.305163 -0.185101
17.309171 -0.282061
17.313164 -0.360372
17.317163 -0.419468
17.321172 -0.465180
17.325163 -0.503364
17.329163 -0.535277
17.333165 -0.555788
17.337163 -0.555628
17.341163 -0.527459
17.345166 -0.471990
17.349150 -0.399017
17.353170 -0.322275
17.357169 -0.252139
17.361168 -0.190757
17.365169 -0.132547
17.369156 -0.070980
17.373175 -0.007100
17.377165  0.048192
17.381163  0.080231
17.385163  0.080574
17.389171  0.055860
17.393162  0.028674
17.397162  0.025199
17.401164  0.056378
17.405164  0.108281
17.409173  0.151317
17.413165  0.162075
17.417163  0.139744
17.421163  0.103515
17.425163  0.074541
17.429171  0.059915
17.433163  0.053368
17.437163  0.049032
17.441163  0.050129
17.445173  0.062473
17.449165  0.083779
17.453163  0.103478
17.457163  0.110670
17.461412  0.099380
17.465163  0.068822
17.469163  0.022486
17.473165 -0.032588
17.477163 -0.086973
17.481171 -0.131887
17.485163 -0.164911
17.489163 -0.192886
17.493163 -0.224776
17.497163 -0.260491
17.501170 -0.290106
17.505165 -0.304627
17.509164 -0.304390
17.513172 -0.296569
17.517245 -0.287640
17.521169 -0.279722
17.525162 -0.272295
17.529161 -0.264276
17.533161 -0.252816
17.537161 -0.232080
17.541162 -0.197191
17.545170 -0.150736
17.549161 -0.103560
17.553161 -0.068148
17.557161 -0.050911
17.561169 -0.049176
17.565161 -0.054765
17.569161 -0.060961
17.573161 -0.065511
17.577161 -0.067258
17.581169 -0.062462
17.585162 -0.045372
17.593161 -0.010455
17.597161  0.046348
17.601163  0.124800
17.605260  0.216291
17.609155  0.306544
17.613290  0.386918
17.617169  0.461909
17.621177  0.542389
17.625163  0.631264
17.629163  0.718270
17.633164  0.790625
17.637159  0.846544
17.641251  0.895320
17.645162  0.945177
17.649157  0.992396
17.653168  1.021239
17.657165  1.015044
17.661290  0.968365
17.665139  0.888095
17.669162  0.786555
17.673169  0.678063
17.677160  0.578671
17.681162  0.501230
17.685173  0.446481
17.689163  0.399802
17.693163  0.341464
17.697163  0.264955
17.701164  0.185294
17.705171  0.127542
17.709164  0.107595
17.713163  0.121406
17.717171  0.144243
17.721163  0.136503
17.725170  0.058832
17.729163 -0.105644
17.733163 -0.336334
17.737163 -0.575480
17.741164 -0.733736
17.745172 -0.695261
17.749258 -0.338383
17.753144  0.411736
17.757163  1.510737
17.761154  2.747548
17.765161  3.779606
17.769162  4.274105
17.773159  4.084549
17.777153  3.325499
17.781161  2.280825
17.785153  1.233788
17.789167  0.359306
17.793159 -0.276091
17.797159 -0.666996
17.801175 -0.840152
17.805165 -0.849129
17.809163 -0.764546
17.813163 -0.650295
17.817163 -0.542749
17.821172 -0.449579
17.825173 -0.365952
17.829153 -0.290361
17.833167 -0.226022
17.837160 -0.173484
17.841158 -0.128283
17.845160 -0.085148
17.849158 -0.041641
17.854100  0.002093
17.857163  0.046594
17.861163  0.096039
17.865171  0.157467
17.869163  0.237413
17.873171  0.338324
17.877170  0.454412
17.881163  0.568817
17.885163  0.656896
17.889163  0.697688
17.893170  0.688997
17.897163  0.654094
17.901163  0.629715
17.905163  0.642340
17.909164  0.693669
17.913169  0.766170
17.917165  0.839218
17.921171  0.900409
17.925170  0.946184
17.929163  0.977635
17.933163  1.000133
17.937164  1.025565
17.941163  1.068000
17.945169  1.133086
17.949167  1.213537
17.953156  1.298707
17.957149  1.390342
17.961401  1.503357
17.965165  1.641542
17.969157  1.774683
17.973335  1.853054
17.977156  1.849433
17.981170  1.781092
17.985171  1.690588
17.989163  1.613630
17.993162  1.566180
17.997162  1.548419
18.001166  1.547550
18.005168  1.538152
18.009164  1.491684
18.013162  1.395249
18.017164  1.263072
18.021164  1.127322
18.025147  1.015122
18.029170  0.932890
18.033220  0.872371
18.037164  0.828363
18.041165  0.802816
18.045162  0.790059
18.049465  0.768550
18.053361  0.715178
18.057162  0.624921
18.061160  0.514441
18.065174  0.408659
18.069165  0.322142
18.073163  0.250011
18.077163  0.177205
18.081165  0.096793
18.085295  0.016596
18.089165 -0.051557
18.093164 -0.103621
18.097171 -0.142890
18.101163 -0.173205
18.105163 -0.196207
18.109163 -0.212840
18.113162 -0.224558
18.117170 -0.232953
18.121164 -0.238981
18.125292 -0.242985
18.129170 -0.245539
18.133160 -0.247830
18.137169 -0.250959
18.141160 -0.255281
18.145162 -0.260427
18.149160 -0.264653
18.153162 -0.263163
18.157168 -0.249193
18.161162 -0.220821
18.165162 -0.186993
18.169162 -0.162625
18.173160 -0.155832
18.177165 -0.162358
18.181168 -0.173628
18.185156 -0.187921
18.189160 -0.210748
18.193162 -0.243587
18.197168 -0.275330
18.201162 -0.289241
18.205168 -0.279203
18.209175 -0.256149
18.213165 -0.236633
18.217163 -0.227035
18.221164 -0.221599
18.225163 -0.214942
18.229175 -0.211893
18.233166 -0.220560
18.237161 -0.235672
18.241341 -0.234711
18.245164 -0.196659
18.249167 -0.122757
18.253161 -0.032457
18.257163  0.058694
18.261161  0.147262
18.265215  0.227520
18.269157  0.280481
18.273167  0.285654
18.277161  0.240955
18.281162  0.166113
18.285160  0.087010
18.289162  0.018794
18.293168 -0.036557
18.297162 -0.080197
18.301330 -0.109842
18.305162 -0.125422
18.309160 -0.137045
18.313169 -0.162475
18.317159 -0.215020
18.321159 -0.293112
18.325160 -0.379948
18.329162 -0.451513
18.333173 -0.487309
18.337166 -0.481074
18.341162 -0.447612
18.345164 -0.417566
18.349162 -0.417665
18.353171 -0.449778
18.357162 -0.489005
18.361164 -0.504685
18.365162 -0.483734
18.369165 -0.433625
18.373170 -0.366469
18.377164 -0.285057
18.381162 -0.185229
18.385164 -0.069001
18.389162  0.047764
18.393171  0.141862
18.397162  0.196617
18.401164  0.209899
18.405162  0.190641
18.409164  0.149547
18.413170  0.092664
18.417164  0.020220
18.421164 -0.071683
18.425164 -0.187105
18.429162 -0.324179
18.433175 -0.471106
18.437165 -0.609072
18.441163 -0.721841
18.445163 -0.805120
18.449163 -0.866539
18.453171 -0.916025
18.457163 -0.957778
18.461163 -0.990984
18.465163 -1.014092
18.469165 -1.027243
18.473164 -1.035901
18.477173 -1.059432
18.481159 -1.135780
18.485171 -1.303532
18.497171 -1.562059
18.501163 -1.842098
18.505164 -2.012391
18.509163 -1.915477
18.513163 -1.421582
18.517171 -0.499975
18.521163  0.712094
18.525163  1.899790
18.529163  2.676170
18.533163  2.776219
18.537174  2.204729
18.541260  1.214281
18.545278  0.141628
18.549153 -0.756000
18.553411 -1.366858
18.557162 -1.699301
18.561145 -1.820506
18.565162 -1.807711
18.569454 -1.728471
18.573166 -1.635551
18.577161 -1.560611
18.581161 -1.510377
18.585167 -1.475283
18.589165 -1.447396
18.593161 -1.431292
18.597161 -1.435970
18.601161 -1.458259
18.605165 -1.480640
18.609166 -1.486796
18.613161 -1.473649
18.617161 -1.446244
18.621176 -1.407416
18.625369 -1.357665
18.629170 -1.301381
18.633163 -1.247077
18.637293 -1.201236
18.641169 -1.165298
18.645161 -1.138856
18.649171 -1.121771
18.653162 -1.111099
18.657168 -1.099647
18.661171 -1.081623
18.665160 -1.058534
18.669162 -1.035454
18.673161 -1.011577
18.677162 -0.979193
18.681168 -0.934055
18.685162 -0.883857
18.689159 -0.844214
18.693159 -0.826600
18.697161 -0.830343
18.701169 -0.845124
18.705161 -0.859544
18.709161 -0.866754
18.713164 -0.863784
18.717161 -0.849306
18.721169 -0.825109
18.725161 -0.798862
18.729161 -0.781100
18.733161 -0.776675
18.737161 -0.780120
18.741175 -0.780781
18.745163 -0.772231
18.749165 -0.757060
18.753167 -0.744225
18.757159 -0.742101
18.761161 -0.752647
18.765159 -0.771854
18.769159 -0.795408
18.773167 -0.821388
18.777159 -0.846378
18.781159 -0.862864
18.785171 -0.866666
18.789158 -0.867710
18.793454 -0.886249
18.797156 -0.934451
18.801166 -1.007141
18.805160 -1.092863
18.809158 -1.187971
18.813160 -1.296513
18.817159 -1.419018
18.821167 -1.542957
18.825158 -1.642318
18.829160 -1.687536
18.833177 -1.664792
18.865289 -1.593960
18.869469 -1.523179
18.873162 -1.494914
18.877169 -1.514506
18.881160 -1.554170
18.885162 -1.584775
18.889160 -1.599609
18.893162 -1.610495
18.897168 -1.628295
18.901162 -1.651014
18.905160 -1.669060
18.909162 -1.677434
18.913160 -1.679783
18.917169 -1.682455
18.921161 -1.688496
18.925162 -1.697528
18.929160 -1.707456
18.933162 -1.713053
18.937289 -1.704167
18.941165 -1.670559
18.945171 -1.613299
18.949162 -1.551001
18.953154 -1.510082
18.957159 -1.505501
18.961159 -1.530462
18.965166 -1.563907
18.969159 -1.586901
18.973175 -1.592745
18.977165 -1.584909
18.981163 -1.569878
18.985163 -1.553729
18.989163 -1.541774
18.993171 -1.536215
18.997163 -1.533237
19.001163 -1.525310
19.005163 -1.508075
19.009175 -1.484368
19.013165 -1.461062
19.017163 -1.442551
19.021163 -1.427884
19.025171 -1.413880
19.029165 -1.399335
19.033163 -1.384450
19.037163 -1.366882
19.041163 -1.341119
19.045171 -1.303288
19.049171 -1.255594
19.053332 -1.205806
19.057173 -1.164260
19.061163 -1.140173
19.065170 -1.136105
19.069163 -1.144838
19.073166 -1.154103
19.077169 -1.155169
19.081165 -1.147133
19.085163 -1.134423
19.089163 -1.120107
19.093163 -1.100066
19.097173 -1.063258
19.101163 -0.998547
19.105163 -0.903665
19.109163 -0.789706
19.113165 -0.674294
19.117171 -0.566170
19.121163 -0.458402
19.125163 -0.340860
19.129163 -0.216554
19.133163 -0.098483
19.137164  0.010519
19.141170  0.125492
19.145169  0.260882
19.149483  0.413145
19.153161  0.566806
19.157161  0.705698
19.161148  0.812896
19.165314  0.869508
19.169159  0.860044
19.173159  0.782352
19.177159  0.657930
19.181159  0.530188
19.185253  0.440619
19.189161  0.399518
19.193169  0.384603
19.197161  0.371060
19.201162  0.354969
19.205163  0.344585
19.209162  0.341505
19.213429  0.340568
19.217165  0.341582
19.221160  0.350424
19.225162  0.367013
19.229160  0.376412
19.233168  0.355135
19.237168  0.287920
19.241169  0.181044
19.245168  0.064967
19.249172 -0.007257
19.253175  0.043129
19.257172  0.320022
19.261157  0.924747
19.265163  1.892275
19.269170  3.119055
19.273163  4.340881
19.277164  5.213862
19.281164  5.481789
19.285163  5.116353
19.289171  4.312488
19.293163  3.349798
19.297163  2.449032
19.301164  1.723624
19.305144  1.210978
19.309163  0.912234
19.313161  0.806144
19.317141  0.851955
19.321139  0.998283
19.325154  1.194455
19.329162  1.398591
19.333173  1.584949
19.337165  1.749104
19.341163  1.902750
19.345171  2.058742
19.349163  2.220761
19.353164  2.386330
19.357170 -0.096826
19.361163 -0.055308
19.365170 -0.009339
19.369170  0.037664
19.373164  0.077097
19.377172  0.105436
19.381164  0.128718
19.385162  0.154367
19.389164  0.181043
19.393162  0.201630
19.397171  0.216294
19.401162  0.237311
19.405164  0.277607
19.409162  0.336452
19.413164  0.400465
19.417170  0.458619
19.421164  0.511099
19.425162  0.561213
19.429164  0.604250
19.433161  0.630828
19.437146  0.641791
19.441261  0.656519
19.445170  0.704524
19.449169  0.806375
19.453169  0.956856
19.457168  1.125279
19.461162  1.277787
19.465161  1.398560
19.469151  1.485871
19.473151  1.537549
19.477156  1.551794
19.481415  1.536368
19.485166  1.505362
19.489160  1.467446
19.493162  1.424054
19.497160  1.378139
19.501165  1.337143
19.505164  1.304921
19.509323  1.275785
19.513160  1.240192
19.517162  1.194464
19.521164  1.141657
19.525166  1.082384
19.529160  1.008809
19.533162  0.912719
19.537160  0.798560
19.541165  0.683029
19.545164  0.580174
19.549162  0.490073
19.553161  0.404142
19.557162  0.319481
19.561171  0.243721
19.565202  0.183351
19.569162  0.130844
19.573164  0.070186
19.577164 -0.003326
19.581167 -0.074592
19.585166 -0.124095
19.589165 -0.148531
19.593162 -0.161649
19.597164 -0.176344
19.601166 -0.191003
19.605168 -0.194783
19.609162 -0.183006
19.613164 -0.164652
19.617162 -0.155218
19.621167 -0.163885
19.625166 -0.188386
19.629164 -0.219858
19.633162 -0.248064
19.637164 -0.261986
19.641166 -0.252307
19.645168 -0.219539
19.649329 -0.178418
19.653164 -0.148656
19.657163 -0.138971
19.661299 -0.141766
19.665166 -0.143479
19.669163 -0.137747
19.673160 -0.128061
19.677162 -0.120112
19.681163 -0.114352
19.685167 -0.107232
19.689160 -0.097761
19.693162 -0.087931
19.697175 -0.073172
19.701165 -0.036652
19.705173  0.035982
19.709307  0.132434
19.713161  0.214215
19.717165  0.248642
19.721160  0.235060
19.725162  0.195505
19.729161  0.147974
19.733162  0.098231
19.737170  0.054638
19.741162  0.037421
19.745160  0.061844
19.749160  0.114334
19.753411  0.158745
19.757142  0.172222
19.761140  0.164982
19.765168  0.159267
19.769149  0.161742
19.773415  0.165324
19.777158  0.166137
19.781157  0.166971
19.785171  0.167492
19.789162  0.158357
19.793164  0.128207
19.797159  0.076754
19.801162  0.018900
19.805170 -0.027035
19.809163 -0.055738
19.813160 -0.076005
19.817162 -0.093134
19.821160 -0.096063
19.825169 -0.069123
19.829160 -0.013303
19.833162  0.052846
19.837175  0.114277
19.841165  0.174285
19.845163  0.245328
19.849163  0.331068
19.853163  0.422640
19.857171  0.509133
19.861163  0.586119
19.865164  0.655386
19.869365  0.721881
19.873175  0.790067
19.877163  0.856522
19.881170  0.905107
19.885164  0.912976
19.889163  0.862328
19.893163  0.750356
19.897163  0.594666
19.901175  0.426934
19.905165  0.271987
19.909165  0.130287
19.913162 -0.014095
19.917167 -0.166926
19.921155 -0.310519
19.925162 -0.420455
19.929160 -0.491898
19.933169 -0.542933
19.937160 -0.591401
19.941162 -0.635007
19.945160 -0.659417
19.949162 -0.663812
19.953168 -0.672938
19.957162 -0.721415
19.961160 -0.827201
19.965162 -0.980545
19.969168 -1.151724
19.973169 -1.294133
19.977168 -1.329164
19.981165 -1.137794
19.985161 -0.596785
19.989162  0.339276
19.993161  1.558813
19.997162  2.781422
20.001168  3.648832
20.005162  3.890193
20.009160  3.461630
20.013162  2.554384
20.017269  1.467916
20.021308  0.456527
20.025163 -0.345129
20.029171 -0.906470
20.033163 -1.250666
20.037162 -1.416515
20.041162 -1.442629
20.045167 -1.365056
20.049163 -1.218857
20.053166 -1.038809
20.057167 -0.857066
20.061434 -0.696632
20.065166 -0.567407
20.069140 -0.473220
20.073173 -0.418794
20.077167 -0.401038
20.081172 -0.398568
20.085174 -0.383362
20.089164 -0.345142
20.093164 -0.298613
20.097162 -0.265672
20.101164 -0.252052
20.105170 -0.242281
20.109164 -0.218639
20.113162 -0.182058
20.117164 -0.149270
20.121162 -0.130721
20.125172 -0.117499
20.129163 -0.091662
20.133223 -0.043715
20.137291  0.025014
20.141217  0.112851
20.145285  0.221040
20.149213  0.343789
20.153139  0.462175
20.157381  0.555842
20.161155  0.620837
20.165159  0.670208
20.169162  0.714563
20.173284  0.747047
20.177169  0.753227
20.181162  0.733718
20.185162  0.708904
20.189154  0.697900
20.193162  0.699123
20.197154  0.697570
20.201169  0.687427
20.205160  0.679430
20.209162  0.684310
20.213160  0.696543
20.217162  0.701680
20.221168  0.696717
20.225163  0.694454
20.229168  0.705135
20.233168  0.719896
20.237161  0.717741
20.241283  0.686265
20.245168  0.630870
20.249163  0.564971
20.253364  0.496241
20.257169  0.424403
20.261162  0.349215
20.265160  0.274320
20.269163  0.199838
20.273159  0.117064
20.277175  0.019817
20.281228 -0.079824
20.285170 -0.157146
20.289293 -0.201061
20.293171 -0.229266
20.297162 -0.270548
20.301170 -0.333074
20.305171 -0.396431
20.309163 -0.436649
20.313170 -0.452885
20.317171 -0.463889
20.321162 -0.482192
20.325170 -0.501864
20.329307 -0.513665
20.333165 -0.520363
20.337164 -0.527050
20.341399 -0.523559
20.345169 -0.490124
20.349162 -0.422541
20.353149 -0.344380
20.357162 -0.288743
20.361169 -0.267733
20.365142 -0.263757
20.369161 -0.253639
20.373168 -0.236229
20.377161 -0.228967
20.381168 -0.239965
20.385161 -0.254385
20.389363 -0.253465
20.393164 -0.239744
20.397157 -0.233380
20.401161 -0.243902
20.405169 -0.255186
20.409168 -0.243435
20.413330 -0.204247
20.417167 -0.154936
20.421170 -0.113104
20.425168 -0.081807
20.429162 -0.057441
20.433168 -0.042856
20.437162 -0.043303
20.441168 -0.051790
20.445259 -0.049526
20.449162 -0.026695
20.453175  0.002793
20.457166  0.014921
20.461163  0.002623
20.465175 -0.018495
20.469165 -0.033132
20.473163 -0.045902
20.477175 -0.070666
20.481173 -0.105902
20.485163 -0.131440
20.489175 -0.132435
20.493171 -0.120160
20.497163 -0.121701
20.501163 -0.149042
20.505163 -0.185927
20.509174 -0.209732
20.513164 -0.219220
20.517250 -0.231147
20.521165 -0.251982
20.525163 -0.265775
20.529175 -0.256423
20.533157 -0.232818
20.537163 -0.220430
20.541162 -0.230488
20.545154 -0.249443
20.549162 -0.262209
20.553154 -0.274753
20.557169 -0.303626
20.561168 -0.347819
20.565162 -0.382690
20.569168 -0.384560
20.573162 -0.353046
20.577168 -0.302215
20.581164 -0.233063
20.585183 -0.125024
20.589220  0.035247
20.593424  0.218063
20.597152  0.362180
20.601166  0.437613
20.605162  0.487759
20.609322  0.587893
20.613399  0.759562
20.617151  0.945479
20.621161  1.073226
20.625213  1.119179
20.629167  1.100943
20.633146  1.035641
20.637215  0.931858
20.641212  0.814369
20.645356  0.729425
20.649164  0.711477
20.653163  0.751512
20.657297  0.806095
20.661237  0.834586
20.665255  0.822985
20.669263  0.776060
20.673292  0.700104
20.677266  0.604341
20.681204  0.513937
20.685382  0.467026
20.689204  0.489613
20.693209  0.567660
20.697336  0.642720
20.701164  0.643701
20.705170  0.528716
20.709163  0.296837
20.713161 -0.026728
20.717161 -0.399594
20.721161 -0.759081
20.725175 -1.019957
20.729169 -1.074997
20.733174 -0.805186
20.737160 -0.127397
20.741168  0.916895
20.745170  2.097983
20.749163  3.046733
20.753163  3.425703
20.757166  3.115842
20.761162  2.270464
20.765162  1.193661
20.769160  0.157965
20.773162 -0.693829
20.777168 -1.328616
20.781162 -1.754896
20.785168 -1.982859
20.789173 -2.031003
20.793219 -1.945686
20.797164 -1.794854
20.801412 -1.636784
20.805163 -1.498709
20.809161 -1.385798
20.813161 -1.302179
20.817161 -1.254421
20.821168 -1.236909
20.825162 -1.227827
20.829163 -1.209015
20.833161 -1.184102
20.837161 -1.168005
20.841168 -1.161170
20.845161 -1.144757
20.849161 -1.105038
20.853161 -1.053860
20.857161 -1.015400
20.861169 -0.994751
20.865198 -0.968287
20.869405 -0.907173
20.873169 -0.806003
20.877148 -0.686064
20.881165 -0.571343
20.885273 -0.465367
20.889169 -0.356723
20.893411 -0.241938
20.897141 -0.131191
20.901193 -0.033335
20.905167  0.053365
20.909140  0.133704
20.913211  0.205438
20.917217  0.261458
20.921166  0.302418
20.925215  0.343855
20.929166  0.406057
20.933167  0.494785
20.937258  0.595219
20.941236  0.691711
20.945211  0.793105
20.949167  0.927374
20.953194  1.106133
20.957307  1.301950
20.961270  1.468266
20.965197  1.581653
20.969243  1.657537
20.973205  1.720843
20.977237  1.771274
20.981158  1.785453
20.985157  1.744189
20.989168  1.649115
20.993387  1.516489
20.997166  1.360908
21.001160  1.189602
21.005162  1.009766
21.009168  0.828543
21.013164  0.643158
21.017160  0.444170
21.021162  0.234080
21.025161  0.033863
21.029169 -0.135944
21.033160 -0.276696
21.037312 -0.407154
21.041172 -0.537605
21.045331 -0.654568
21.049175 -0.733833
21.053294 -0.765429
21.057165 -0.763362
21.061353 -0.752559
21.065172 -0.751068
21.069164 -0.767652
21.073163 -0.809058
21.077171 -0.878211
21.081162 -0.965025
21.085164 -1.047952
21.089162 -1.109459
21.093165 -1.146933
21.097172 -1.166675
21.101783 -1.173137
21.105171 -1.168870
21.109170 -1.160871
21.113159 -1.160333
21.117160 -1.172342
21.121169 -1.185686
21.125160 -1.178821
21.129162 -1.141323
21.133173 -1.086525
21.137155 -1.038682
21.141155 -1.008760
21.145168 -0.986801
21.149168 -0.959526
21.153161 -0.929651
21.157169 -0.910134
21.161161 -0.901887
21.165163 -0.888619
21.169161 -0.858223
21.173161 -0.820718
21.177169 -0.796581
21.181168 -0.790353
21.185334 -0.784474
21.189168 -0.761374
21.193161 -0.724664
21.197294 -0.692543
21.201171 -0.674479
21.205169 -0.662850
21.209163 -0.648421
21.213163 -0.636158
21.217163 -0.638552
21.221163 -0.655052
21.225167 -0.667547
21.229167 -0.661209
21.233166 -0.642199
21.237146 -0.625910
21.241198 -0.611901
21.245240 -0.581267
21.249152 -0.521028
21.253163 -0.443632
21.257426 -0.377291
21.261167 -0.338996
21.265163 -0.320583
21.269140 -0.303294
21.273162 -0.282549
21.277161 -0.270208
21.281169 -0.273092
21.285161 -0.281324
21.289163 -0.283248
21.293175 -0.282290
21.297172 -0.289309
21.301171 -0.301349
21.305236 -0.298617
21.309172 -0.267656
21.313153 -0.221721
21.317173 -0.188569
21.321165 -0.175758
21.325163 -0.156120
21.329175 -0.096912
21.333160 -0.000584
21.337170  0.095599
21.341153  0.162860
21.345159  0.214180
21.349175  0.290886
21.353291  0.421505
21.357418  0.596171
21.361162  0.778255
21.365169  0.933369
21.369161  1.040707
21.373169  1.085270
21.377161  1.058353
21.381169  0.970780
21.385169  0.853486
21.389168  0.735353
21.393164  0.622348
21.397160  0.503044
21.401169  0.372697
21.405173  0.244263
21.409165  0.132391
21.413172  0.034480
21.417163 -0.062459
21.421163 -0.158334
21.425170 -0.235682
21.429170 -0.284701
21.433163 -0.322258
21.437170 -0.372366
21.441170 -0.429261
21.445164 -0.454224
21.449171 -0.421212
21.453164 -0.364770
21.457366 -0.366856
21.461169 -0.483022
21.465161 -0.691042
21.469169 -0.921061
21.473170 -1.113578
21.477164 -1.221198
21.481162 -1.162799
21.485164 -0.813279
21.489170 -0.075131
21.493171  1.015690
21.497155  2.240328
21.501167  3.256643
21.505175  3.749365
21.509165  3.586502
21.513171  2.875181
21.517285  1.878185
21.521164  0.865208
21.525172  0.008306
21.529164 -0.633853
21.533162 -1.071939
21.537164 -1.332428
21.541172 -1.429452
21.545175 -1.373589
21.549278 -1.201768
21.553151 -0.988493
21.557151 -0.812519
21.561167 -0.705477
21.565166 -0.637600
21.569168 -0.559133
21.573161 -0.453668
21.577169 -0.345896
21.581160 -0.263381
21.585173 -0.207436
21.589165 -0.165458
21.593163 -0.135649
21.597165 -0.125483
21.601164 -0.129916
21.605171 -0.124942
21.609173 -0.089363
21.613332 -0.027154
21.617192  0.038928
21.621174  0.093551
21.625157  0.140846
21.629157  0.188743
21.633171  0.229392
21.637163  0.243873
21.641163  0.226331
21.645163  0.197081
21.649165  0.188204
21.653172  0.217070
21.657163  0.275029
21.661297  0.341448
21.665163  0.404254
21.669161  0.461408
21.673161  0.508477
21.677168  0.539065
21.681168  0.558703
21.685292  0.584959
21.689165  0.627107
21.693163  0.673388
21.697335  0.705163
21.701171  0.719071
21.705163  0.727758
21.709296  0.741425
21.713163  0.759268
21.717173  0.780879
21.721310  0.815194
21.725170  0.870305
21.729428  0.936979
21.733164  0.988865
21.737160  1.003694
21.741304  0.983367
21.745165  0.948404
21.749163  0.912483
21.753175  0.868272
21.757293  0.801623
21.761161  0.714794
21.765169  0.627924
21.769155  0.556927
21.773371  0.496797
21.777169  0.431175
21.781161  0.354869
21.785161  0.280131
21.789161  0.219725
21.793161  0.171414
21.797169  0.125582
21.801323  0.083147
21.805287  0.055172
21.809171  0.043541
21.813170  0.032657
21.817164  0.007823
21.821175 -0.023584
21.825371 -0.038599
21.829172 -0.026589
21.833164 -0.002744
21.837148  0.010914
21.841166  0.013044
21.845143  0.023225
21.849166  0.053728
21.853262  0.090759
21.857432  0.114594
21.861164  0.135872
21.865143  0.194119
21.869163  0.308549
21.873160  0.444255
21.877311  0.544579
21.881161  0.587915
21.885154  0.596658
21.889169  0.597311
21.893160  0.589265
21.897162  0.556009
21.901161  0.495470
21.905171  0.427926
21.909160  0.373976
21.913357  0.333947
21.917171  0.294799
21.921163  0.250994
21.925170  0.208081
21.929171  0.166146
21.933163  0.111588
21.937164  0.033114
21.941163 -0.058970
21.945164 -0.138611
21.949170 -0.190968
21.953164 -0.227192
21.957160 -0.267889
21.961164 -0.316692
21.965160 -0.358058
21.969169 -0.381372
21.973160 -0.400307
21.977162 -0.442965
21.981160 -0.522504
21.985162 -0.618674
21.989168 -0.688546
21.993170 -0.697648
21.997163 -0.644284
22.001200 -0.553925
22.005481 -0.453450
22.009137 -0.358765
22.013163 -0.282183
22.017168 -0.234747
22.021163 -0.216881
22.025162 -0.217049
22.029171 -0.225406
22.033171 -0.244038
22.037164 -0.278348
22.041162 -0.321378
22.045164 -0.355307
22.049163 -0.371062
22.053171 -0.379830
22.057162 -0.399319
22.061164 -0.430563
22.065172 -0.454562
22.069163 -0.454976
22.073163 -0.439324
22.077159 -0.430363
22.081169 -0.437183
22.085161 -0.443273
22.089161 -0.427712
22.093161 -0.391671
22.097161 -0.354751
22.101169 -0.327109
22.105161 -0.296217
22.109161 -0.244082
22.113175 -0.168471
22.117165 -0.080033
22.121171  0.017437
22.125163  0.132921
22.129175  0.269453
22.133172  0.408325
22.137164  0.522810
22.141246  0.604664
22.145159  0.666608
22.149160  0.718445
22.153157  0.752509
22.157158  0.757895
22.161272  0.738307
22.165157  0.705494
22.169165  0.659228
22.173162  0.584562
22.177283  0.473607
22.181171  0.345604
22.185290  0.236612
22.189470  0.164882
22.193169  0.111335
22.197169  0.040711
22.201161 -0.060764
22.205161 -0.175320
22.209331 -0.278036
22.213161 -0.361423
22.217169 -0.434978
22.221296 -0.511371
22.225167 -0.602489
22.229173 -0.725565
22.233163 -0.899415
22.237171 -1.122930
22.241163 -1.352617
22.245163 -1.498030
22.249163 -1.437894
22.253173 -1.052670
22.257172 -0.274536
22.261172  0.848330
22.265175  2.102918
22.269174  3.138844
22.273164  3.612796
22.277170  3.383612
22.281211  2.596333
22.285166  1.568856
22.289158  0.588415
22.293371 -0.204254
22.297168 -0.788759
22.301160 -1.181870
22.305162 -1.394586
22.309164 -1.446170
22.313147 -1.384794
22.317236 -1.273612
22.321168 -1.157415
22.325161 -1.050337
22.329230 -0.952410
22.333173 -0.865849
22.337158 -0.791779
22.341163 -0.722235
22.345168 -0.647605
22.349162 -0.572288
22.353168 -0.514885
22.357161 -0.487363
22.361161 -0.476487
22.365161 -0.453230
22.369173 -0.403035
22.373165 -0.340036
22.377171 -0.286618
22.381167 -0.244889
22.385165 -0.195867
22.389307 -0.125588
22.393161 -0.044679
22.397161  0.022801
22.401161  0.066994
22.405169  0.100580
22.409161  0.137641
22.413161  0.173971
22.417161  0.196684
22.421161  0.207737
22.425173  0.226506
22.429173  0.267437
22.433381  0.323535
22.437155  0.376391
22.441170  0.417524
22.445145  0.453747
22.449150  0.492647
22.453169  0.532208
22.457155  0.572398
22.461173  0.628410
22.465173  0.716051
22.469141  0.825223
22.473422  0.923067
22.477169  0.986789
22.481233  1.024943
22.485165  1.062892
22.489169  1.111322
22.493171  1.153884
22.497163  1.167355
22.501164  1.150614
22.505163  1.126755
22.509172  1.114266
22.513167  1.104075
22.517164  1.071749
22.521163  1.006922
22.525164  0.922448
22.529170  0.836260
22.533171  0.752650
22.537215  0.664454
22.541171  0.567899
22.545157  0.468138
22.549163  0.368908
22.553159  0.263213
22.557166  0.141987
22.561161  0.010418
22.565161 -0.114129
22.569161 -0.223207
22.573169 -0.325271
22.577201 -0.424407
22.581336 -0.501592
22.585161 -0.531982
22.589173 -0.517927
22.593165 -0.492721
22.597171 -0.489118
22.601171 -0.508847
22.605163 -0.526875
22.609170 -0.524850
22.613171 -0.513498
22.617163 -0.518039
22.621164 -0.547447
22.625163 -0.585269
22.629164 -0.610036
22.633173 -0.618039
22.637334 -0.621034
22.641288 -0.625089
22.645169 -0.621302
22.649163 -0.600430
22.653162 -0.568008
22.657175 -0.537046
22.661173 -0.509690
22.665141 -0.474938
22.669169 -0.424873
22.673164 -0.365540
22.677301 -0.308022
22.681216 -0.253919
22.685307 -0.196381
22.689162 -0.135056
22.693160 -0.082093
22.697162 -0.047936
22.701168 -0.026384
22.705168 -0.002778
22.713168  0.024398
22.717339  0.041134
22.721301  0.038377
22.725169  0.021249
22.729161 -0.006949
22.733298 -0.054270
22.737161 -0.121137
22.741170 -0.180623
22.745162 -0.193228
22.749158 -0.146014
22.753150 -0.071781
22.757139 -0.022246
22.761151 -0.021014
22.765160 -0.049533
22.769151 -0.079980
22.773161 -0.108960
22.777156 -0.149991
22.781168 -0.203165
22.785334 -0.248999
22.789160 -0.274538
22.793157 -0.292078
22.797161 -0.321887
22.801172 -0.362489
22.805162 -0.389966
22.809164 -0.388053
22.813162 -0.369757
22.817164 -0.362407
22.821170 -0.374977
22.825164 -0.388745
22.829162 -0.381375
22.833164 -0.351969
22.837167 -0.318598
22.841235 -0.298518
22.845217 -0.296187
22.849171 -0.306117
22.853162 -0.321941
22.857165 -0.341078
22.861163 -0.361225
22.865173 -0.378195
22.869162 -0.392701
22.873164 -0.413477
22.877162 -0.443165
22.881173 -0.460961
22.885252 -0.431000
22.889145 -0.335365
22.893235 -0.189773
22.897160 -0.020246
22.901166  0.163025
22.905200  0.359584
22.909571  0.555870
22.913169  0.718987
22.917160  0.816440
22.921162  0.841776
22.925159  0.816993
22.929161  0.767439
22.933170  0.699530
22.937163  0.608386
22.941165  0.500967
22.945170  0.398090
22.949167  0.310208
22.953161  0.222434
22.957169  0.113071
22.961161 -0.017158
22.965428 -0.143782
22.969167 -0.247477
22.973163 -0.335434
22.977163 -0.427672
22.981163 -0.528301
22.985169 -0.620283
22.989164 -0.687658
22.993163 -0.732757
22.997174 -0.766982
23.001166 -0.793469
23.005163 -0.812504
23.009174 -0.845410
23.013167 -0.936800
23.017163 -1.116869
23.021163 -1.359980
23.025163 -1.581890
23.029169 -1.668888
23.033171 -1.505227
23.037165 -0.993981
23.041167 -0.096989
23.045163  1.100067
23.049141  2.346327
23.053139  3.284230
23.057155  3.621180
23.061168  3.299629
23.065248  2.511390
23.069139  1.546388
23.073302  0.628827
23.077164 -0.132063
23.081161 -0.697858
23.085163 -1.056952
23.089168 -1.223378
23.093162 -1.246956
23.097160 -1.195808
23.101162 -1.120158
23.105160 -1.036430
23.109169 -0.945638
23.113160 -0.856877
23.117162 -0.784934
23.121161 -0.730925
23.125175 -0.678323
23.129165 -0.612857
23.133172 -0.540149
23.137171 -0.477535
23.141147 -0.430104
23.145163 -0.381693
23.149493 -0.314500
23.153162 -0.232823
23.157139 -0.156674
23.161138 -0.093090
23.165155 -0.028893
23.169164  0.043604
23.173168  0.108509
23.177166  0.145826
23.181162  0.163393
23.185161  0.194645
23.189162  0.258762
23.193157  0.335467
23.197160  0.390587
23.201156  0.416937
23.205161  0.436847
23.209169  0.469297
23.213162  0.508354
23.217159  0.537289
23.221162  0.554241
23.225296  0.573876
23.229168  0.605141
23.233265  0.638278
23.237161  0.660363
23.241161  0.678005
23.245543  0.714178
23.249165  0.779608
23.253171  0.854578
23.257160  0.906422
23.261153  0.923138
23.265169  0.923142
23.269161  0.931612
23.273335  0.954148
23.277161  0.977698
23.281169  0.992133
23.285161  1.000893
23.289161  1.007307
23.293162  1.000388
23.297162  0.964670
23.301168  0.900903
23.305155  0.826776
23.309169  0.755690
23.313168  0.683030
23.317162  0.597273
23.321160  0.497121
23.325162  0.389794
23.329168  0.276651
23.333162  0.153284
23.337161  0.029153
23.341200 -0.065073
23.345163 -0.105641
23.349151 -0.109238
23.353862 -0.124529
23.357160 -0.185100
23.361161 -0.274738
23.365166 -0.343425
23.369144 -0.357432
23.373168 -0.328078
23.377283 -0.291161
23.381246 -0.269232
23.385173 -0.261163
23.389163 -0.261681
23.393164 -0.277371
23.397158 -0.316290
23.401169 -0.368573
23.405161 -0.410076
23.409168 -0.428350
23.413171 -0.435973
23.417169 -0.451708
23.421162 -0.474769
23.425168 -0.487351
23.429168 -0.481733
23.433162 -0.474355
23.437168 -0.485955
23.441162 -0.513045
23.445160 -0.530311
23.449162 -0.522456
23.453170 -0.502181
23.457169 -0.490415
23.461170 -0.488530
23.465163 -0.480490
23.469168 -0.457762
23.473162 -0.430520
23.477160 -0.412802
23.481175 -0.404941
23.485165 -0.395986
23.489164 -0.380549
23.493165 -0.366994
23.497165 -0.365116
23.501171 -0.368170
23.505209 -0.355542
23.509168 -0.317637
23.513144 -0.271327
23.517163 -0.243525
23.521163 -0.243403
23.525171 -0.258379
23.529163 -0.275603
23.533163 -0.297593
23.537163 -0.332742
23.541163 -0.377614
23.545170 -0.417039
23.549163 -0.440978
23.553173 -0.453774
23.557172 -0.462630
23.561177 -0.461453
23.565250 -0.434083
23.569170 -0.376351
23.573168 -0.309580
23.577282 -0.265384
23.581166 -0.257517
23.585160 -0.274219
23.589159 -0.297135
23.593173 -0.318851
23.597165 -0.339217
23.601163 -0.354843
23.605171 -0.362902
23.613162 -0.370594
23.617161 -0.385956
23.621161 -0.397218
23.625159 -0.376820
23.629262 -0.316254
23.633171 -0.247492
23.637163 -0.213304
23.641164 -0.214980
23.645139 -0.207633
23.649399 -0.159205
23.653164 -0.099171
23.657167 -0.089016
23.661169 -0.146498
23.665160 -0.213243
23.669263 -0.207711
23.673170 -0.109892
23.677159  0.021802
23.681161  0.121033
23.685306  0.175333
23.689167  0.209582
23.693161  0.238791
23.697164  0.258593
23.701167  0.269087
23.705165  0.287388
23.709168  0.332808
23.713161  0.408272
23.717168  0.500810
23.721175  0.595165
23.725165  0.680436
23.729163  0.743885
23.733175  0.767361
23.737165  0.739199
23.741163  0.668625
23.745339  0.579423
23.749163  0.485535
23.753162  0.379054
23.757296  0.248075
23.761162  0.102179
23.765222 -0.029067
23.769164 -0.124999
23.773168 -0.194230
23.777162 -0.261072
23.781160 -0.335976
23.785162 -0.407397
23.789162 -0.462883
23.793169 -0.507499
23.797160 -0.553109
23.801162 -0.595632
23.805160 -0.617099
23.809162 -0.615788
23.813168 -0.626015
23.817164 -0.697478
23.821160 -0.853097
23.825162 -1.069242
23.829160 -1.289931
23.833169 -1.441638
23.837168 -1.424139
23.841219 -1.107101
23.845165 -0.381637
23.849173  0.739956
23.853163  2.053941
23.857175  3.204467
23.861173  3.837663
23.865224  3.779328
23.869170  3.108797
23.873147  2.082569
23.877175  0.989689
23.881291  0.049002
23.885165 -0.623525
23.889163 -1.009981
23.893163 -1.167236
23.897175 -1.185137
23.901172 -1.140910
23.905171 -1.075223
23.909163 -0.997625
23.913171 -0.907091
23.917163 -0.807431
23.921165 -0.707292
23.925165 -0.613858
23.929155 -0.534049
23.933162 -0.475935
23.937155 -0.437731
23.941161 -0.399290
23.945160 -0.339307
23.949167 -0.265809
23.953144 -0.218725
23.957140 -0.229545
23.961140 -0.277865
23.965169 -0.299626
23.969674 -0.248711
23.973391 -0.145274
23.977159 -0.051319
23.981162 -0.002708
23.985164  0.019741
23.989247  0.053733
23.993155  0.109658
23.997171  0.170330
24.001164  0.223013
24.005163  0.273306
24.009171  0.326344
24.013172  0.370389
24.017163  0.390708
24.021170  0.393707
24.025163  0.404909
24.029163  0.441536
24.033163  0.495469
24.037163  0.546771
24.041164  0.588244
24.045172  0.630610
24.049247  0.683911
24.053173  0.740853
24.057164  0.785614
24.061361  0.816335
24.065172  0.848156
24.069165  0.891643
24.073247  0.938124
24.077172  0.972139
24.081163  0.991768
24.085163  1.007591
24.089171  1.022034
24.093163  1.020056
24.097171  0.987263
24.101170  0.932080
24.105163  0.880390
24.109165  0.845113
24.113163  0.807167
24.117378  0.735535
24.121169  0.625436
24.125161  0.504574
24.129161  0.398009
24.133168  0.300072
24.137161  0.189181
24.141161  0.061240
24.145161 -0.062589
24.149163 -0.160213
24.153168 -0.231975
24.157161 -0.295003
24.161161 -0.359067
24.165161 -0.416804
24.169171 -0.459011
24.173170 -0.490082
24.177344 -0.520341
24.181161 -0.547706
24.185169 -0.557998
24.189169 -0.546568
24.193161 -0.531047
24.197169 -0.534054
24.201161 -0.556604
24.205161 -0.578682
24.209161 -0.586401
24.213161 -0.587165
24.217169 -0.592004
24.221161 -0.592363
24.225279 -0.566894
24.229223 -0.510285
24.233159 -0.442850
24.237160 -0.385632
24.241206 -0.334443
24.245157 -0.267972
24.249169 -0.179921
24.253157 -0.094478
24.257166 -0.044430
24.261143 -0.035690
24.265167 -0.040191
24.269616 -0.027454
24.273164  0.002977
24.277165  0.028776
24.281164  0.039113
24.285170  0.046472
24.289161  0.061643
24.293162  0.071506
24.297160  0.053040
24.301162  0.005163
24.305168 -0.043717
24.309162 -0.062317
24.313201 -0.045378
24.317169 -0.013485
24.321163  0.011904
24.325171  0.027868
24.329168  0.044210
24.333169  0.064285
24.337171  0.078626
24.341162  0.079540
24.345168  0.074230
24.349169  0.073009
24.353160  0.068867
24.357169  0.043547
24.361160 -0.004804
24.365169 -0.095094
24.369160 -0.060716
24.373171 -0.047051
24.377234 -0.057130
24.381171 -0.071173
24.385219 -0.064621
24.389164 -0.035276
24.393170 -0.006819
24.397170 -0.002038
24.401163 -0.017947
24.405176 -0.032616
24.409351 -0.034774
24.413163 -0.039560
24.417163 -0.069782
24.421163 -0.123880
24.425144 -0.169280
24.429175 -0.172077
24.433171 -0.131220
24.437161 -0.077426
24.441171 -0.039716
24.445163 -0.021880
24.449163 -0.012281
24.453435 -0.005894
24.457167 -0.008867
24.461161 -0.024697
24.465161 -0.046091
24.469163 -0.065613
24.473161 -0.087199
24.477169 -0.118467
24.481176 -0.154222
24.485170 -0.176193
24.489164 -0.171362
24.493170 -0.145071
24.497171 -0.112252
24.501165 -0.080033
24.505163 -0.045625
24.509163 -0.009394
24.513163  0.020623
24.517170  0.043284
24.521164  0.077119
24.525171  0.148291
24.529163  0.263146
24.533175  0.398500
24.537164  0.523269
24.541219  0.625505
24.545171  0.712707
24.549170  0.789161
24.553171  0.842256
24.557209  0.854420
24.561171  0.823302
24.565145  0.762964
24.569478  0.684181
24.573165  0.582444
24.577165  0.453775
24.581164  0.315719
24.585345  0.197595
24.589166  0.107957
24.593162  0.024775
24.597170 -0.075349
24.601237 -0.186969
24.605167 -0.283025
24.609164 -0.347713
24.613163 -0.392787
24.617163 -0.440128
24.621163 -0.498134
24.625203 -0.565277
24.629163 -0.651973
24.633170 -0.782455
24.637170 -0.965974
24.641350 -1.167479
24.645161 -1.304571
24.649168 -1.266332
24.653161 -0.940107
24.657161 -0.249549
24.661161  0.787398
24.665161  2.000795
24.669168  3.071398
24.673161  3.647977
24.677161  3.539138
24.681168  2.830395
24.685243  1.813149
24.689354  0.791962
24.693165 -0.056408
24.697163 -0.685326
24.701460 -1.103400
24.705163 -1.325423
24.709161 -1.378642
24.713161 -1.317972
24.717168 -1.209328
24.721168 -1.097013
24.725161 -0.994206
24.729168 -0.901546
24.733162 -0.824196
24.737161 -0.768151
24.741161 -0.727799
24.745161 -0.686735
24.749169 -0.634336
24.753161 -0.577376
24.757161 -0.530855
24.761161 -0.499430
24.765161 -0.472712
24.769348 -0.439473
24.773162 -0.401297
24.777161 -0.367032
24.781297 -0.336649
24.785161 -0.298852
24.789169 -0.246745
24.793161 -0.189191
24.797161 -0.141183
24.801161 -0.105329
24.805161 -0.068989
24.809169 -0.020841
24.813296  0.035451
24.817160  0.087563
24.821171  0.129860
24.825160  0.165991
24.829162  0.197052
24.833159  0.216508
24.837143  0.224609
24.841445  0.242356
24.845167  0.298469
24.849166  0.399805
24.853170  0.522664
24.857167  0.636596
24.861183  0.731051
24.865167  0.814220
24.869141  0.890378
24.873446  0.947532
24.877175  0.970622
24.881165  0.962146
24.885170  0.943821
24.889223  0.936481
24.893176  0.941153
24.897168  0.942280
24.901164  0.927065
24.905163  0.896327
24.909163  0.857246
24.913163  0.814756
24.917204  0.774282
24.921173  0.744143
24.925171  0.726017
24.929163  0.704929
24.933163  0.657049
24.937163  0.571893
24.941170  0.464228
24.945163  0.359502
24.949165  0.267807
24.953162  0.176564
24.957159  0.070596
24.961168 -0.044123
24.965169 -0.141553
24.969299 -0.201506
24.973162 -0.231425
24.977163 -0.258983
24.981169 -0.303900
24.985161 -0.362299
24.989169 -0.419481
24.993163 -0.468512
24.997300 -0.509548
25.001170 -0.538844
25.005171 -0.550416
25.009162 -0.548863
25.013164 -0.550562
25.017162 -0.565934
25.021164 -0.585177
25.025170 -0.588925
25.029170 -0.572470
25.033163 -0.552676
25.037170 -0.547618
25.041163 -0.554344
25.045163 -0.553786
25.049175 -0.535582
25.053165 -0.508517
25.057163 -0.483806
25.061163 -0.456759
25.065175 -0.413288
25.069172 -0.352574
25.073163 -0.294188
25.077162 -0.258013
25.081164 -0.242329
25.085162 -0.228818
25.089173 -0.208075
25.093163 -0.192224
25.097163 -0.197457
25.101171 -0.218814
25.105163 -0.231215
25.109170 -0.216652
25.113184 -0.182904
25.117165 -0.151637
25.121172 -0.134472
25.125164 -0.128134
25.129164 -0.129777
25.133163 -0.145455
25.137164 -0.177432
25.141419 -0.209551
25.145158 -0.216017
25.149157 -0.187284
25.153163 -0.140409
25.157204 -0.098846
25.161166 -0.066030
25.165169 -0.026799
25.169136  0.025059
25.173233  0.071724
25.177157  0.090729
25.181163  0.081856
25.185212  0.065198
25.189385  0.054926
25.193165  0.045458
25.197152  0.027526
25.201330  0.008129
25.205161  0.003316
25.209175  0.013875
25.213165  0.020033
25.217163  0.004290
25.221176 -0.028057
25.225167 -0.057680
25.229336 -0.077140
25.233170 -0.099984
25.237157 -0.141130
25.241156 -0.193829
25.245175 -0.234885
25.249165 -0.254067
25.253163 -0.269405
25.257171 -0.306639
25.261165 -0.368319
25.265163 -0.430989
25.269163 -0.472063
25.273175 -0.491833
25.277165 -0.505731
25.281330 -0.522618
25.285163 -0.541903
25.289177 -0.569797
25.293301 -0.618457
25.297161 -0.675814
25.301168 -0.692205
25.305171 -0.621697
25.309169 -0.475013
25.313143 -0.314427
25.317191 -0.196298
25.321168 -0.128365
25.325161 -0.080108
25.329169 -0.023077
25.333163  0.045098
25.337161  0.111518
25.341161  0.169958
25.345334  0.222838
25.349169  0.264809
25.353161  0.276585
25.357161  0.243795
25.361161  0.178258
25.365173  0.108819
25.369160  0.047567
25.373163 -0.024738
25.377163 -0.132954
25.381155 -0.274081
25.385161 -0.417235
25.389155 -0.534756
25.393169 -0.625335
25.397175 -0.703649
25.401396 -0.775338
25.405175 -0.832698
25.409165 -0.873356
25.413163 -0.909817
25.417170 -0.952975
25.421165 -0.994286
25.425163 -1.017965
25.429163 -1.033268
25.433337 -1.081451
25.437159 -1.197538
25.441160 -1.368737
25.445158 -1.541152
25.449173 -1.660897
25.453167 -1.687150
25.457206 -1.557127
25.461167 -1.161998
25.465162 -0.399390
25.469138  0.716880
25.473137  1.984225
25.477162  3.054190
25.481161  3.589217
25.485170  3.439811
25.489161  2.710335
25.493161  1.668371
25.497161  0.592207
25.501163 -0.324884
25.505265 -0.990561
25.509293 -1.394404
25.513165 -1.582096
25.517163 -1.622157
25.521163 -1.573972
25.525171 -1.477847
25.529163 -1.365725
25.533163 -1.266473
25.537163 -1.194380
25.541164 -1.140219
25.545171 -1.083672
25.549163 -1.016835
25.553164 -0.951433
25.557162 -0.900918
25.561163 -0.860532
25.565170 -0.811709
25.569164 -0.745423
25.573162 -0.673555
25.577175 -0.613328
25.581165 -0.566566
25.585163 -0.521686
25.589163 -0.473615
25.593163 -0.432245
25.597171 -0.406885
25.601171 -0.387440
25.605172 -0.348533
25.609298 -0.274262
25.613173 -0.174597
25.617167 -0.072860
25.621165  0.020987
25.625175  0.117063
25.629173  0.224448
25.633167  0.333424
25.637343  0.426463
25.641168  0.501803
25.645161  0.576487
25.649163  0.664452
25.653242  0.758892
25.657165  0.841653
25.661162  0.905997
25.665163  0.962643
25.669161  1.023352
25.673457  1.086527
25.677171  1.143824
25.681161  1.195537
25.685162  1.250594
25.689169  1.310006
25.693161  1.358267
25.697161  1.379104
25.701162  1.378977
25.705143  1.387536
25.709207  1.430209
25.713162  1.503585
25.717159  1.582141
25.721169  1.645392
25.725160  1.689649
25.729372  1.712937
25.733172  1.701945
25.737147  1.647534
25.741338  1.569412
25.745400  1.507975
25.749154  1.484963
25.753152  1.484451
25.757160  1.479045
25.761165  1.461674
25.765140  1.442212
25.769434  1.424136
25.773162  1.398858
25.777168  1.360290
25.781256  1.313130
25.785163  1.264043
25.789163  1.212844
25.793163  1.159585
25.797224  1.116387
25.801173  1.101716
25.805342  1.120384
25.809169  1.155095
25.813285  1.180863
25.817169  1.185574
25.821145  1.173868
25.825171  1.152397
25.829161  1.116626
25.833162  1.055594
25.837161  0.969016
25.841161  0.876609
25.845175  0.805364
25.849165  0.764402
25.853163  0.736461
25.857426  0.699640
25.861170  0.654258
25.865161  0.620162
25.869161  0.608152
25.873173  0.604695
25.877165  0.590374
25.881163  0.566199
25.885163  0.553371
25.889170  0.568527
25.893163  0.604490
25.897162  0.632879
25.901164  0.617247
25.905162  0.527222
25.909173  0.365408
25.913442  0.199114
25.917164  0.136825
25.921175  0.231118
25.925241  0.416644
25.929161  0.572024
25.933162  0.625608
25.937169  0.587908
25.941161  0.510647
25.945161  0.435579
25.949161  0.372531
25.953161  0.312113
25.957171  0.252391
25.961355  0.207355
25.965163  0.186426
25.969173  0.173772
25.973293  0.142250
25.977169  0.091202
25.981169  0.056906
25.985277  0.072836
25.989164  0.126092
25.993170  0.166427
25.997162  0.155725
26.001158  0.099657
26.005162  0.032435
26.009198 -0.022315
26.013171 -0.070678
26.017163 -0.129230
26.021170 -0.196099
26.025171 -0.252246
26.029163 -0.290248
26.033337 -0.328458
26.037161 -0.387001
26.041165 -0.452472
26.045169 -0.477552
26.049167 -0.425346
26.053167 -0.311973
26.057236 -0.195170
26.061140 -0.121712
26.065157 -0.097716
26.069143 -0.108124
26.073138 -0.144223
26.077166 -0.199835
26.081165 -0.254011
26.085171 -0.279522
26.089158 -0.272881
26.093170 -0.262205
26.097147 -0.276542
26.101143 -0.313686
26.105172 -0.345678
26.109163 -0.351898
26.113171 -0.336689
26.117163 -0.313403
26.121163 -0.282162
26.125173 -0.232317
26.129165 -0.162620
26.133163 -0.087018
26.137171 -0.015943
26.141163  0.058872
26.145163  0.150274
26.149336  0.248803
26.153161  0.320652
26.157168  0.337087
26.161161  0.301033
26.165162  0.238744
26.169161  0.167244
26.173161  0.078406
26.177169 -0.041932
26.181161 -0.187448
26.185161 -0.332848
26.189161 -0.459712
26.193161 -0.571416
26.197168 -0.678680
26.201161 -0.777837
26.205292 -0.853416
26.209169 -0.902053
26.213161 -0.942768
26.217162 -0.995562
26.221367 -1.055412
26.225170 -1.098027
26.229164 -1.111133
26.233168 -1.111259
26.237162 -1.128843
26.241160 -1.186193
26.245162 -1.292941
26.249160 -1.451458
26.253173 -1.652305
26.257167 -1.857004
26.261173 -1.982448
26.265155 -1.906157
26.269163 -1.504491
26.273333 -0.715137
26.277156  0.401751
26.281162  1.631938
26.285154  2.639497
26.289169  3.091443
26.293169  2.834148
26.297163  1.995547
26.301341  0.913718
26.305173 -0.066146
26.309171 -0.771040
26.313175 -1.219696
26.317298 -1.496388
26.321165 -1.636741
26.325286 -1.636730
26.329167 -1.522142
26.333162 -1.363514
26.337171 -1.225039
26.341170 -1.120066
26.345165 -1.022888
26.349159 -0.914162
26.353152 -0.803621
26.357167 -0.710103
26.361168 -0.633933
26.365202 -0.560339
26.369139 -0.485376
26.373159 -0.425931
26.377161 -0.400781
26.381168 -0.408681
26.385161 -0.430509
26.389161 -0.450253
26.393163 -0.466337
26.397168 -0.479690
26.401170 -0.479002
26.405161 -0.449338
26.409159 -0.396182
26.413160 -0.350214
26.417173 -0.339756
26.421165 -0.359935
26.425401 -0.374472
26.429173 -0.350925
26.433155 -0.292335
26.437169 -0.228558
26.441162 -0.178591
26.445161 -0.134987
26.449162 -0.088053
26.453160 -0.047381
26.457170 -0.027106
26.461160 -0.020405
26.465162 -0.003344
26.469160  0.037286
26.473162  0.090453
26.477293  0.137534
26.481165  0.175293
26.485163  0.215702
26.489171  0.265035
26.493163  0.313406
26.497355  0.349736
26.501168  0.377860
26.505164  0.408550
26.509160  0.439865
26.513169  0.456295
26.517160  0.450364
26.521169  0.437045
26.525168  0.437964
26.529162  0.452504
26.533168  0.452945
26.537162  0.411816
26.541168  0.329209
26.545162  0.228895
26.549160  0.131567
26.553162  0.039281
26.557175 -0.053947
26.561165 -0.145443
26.565163 -0.226057
26.569163 -0.296620
26.573170 -0.371956
26.577163 -0.463464
26.581163 -0.563297
26.585163 -0.652718
26.589163 -0.724552
26.593171 -0.789719
26.597163 -0.858828
26.601163 -0.924566
26.605163 -0.969994
26.609163 -0.991663
26.613170 -1.006244
26.617163 -1.031772
26.621163 -1.067370
26.625171 -1.096391
26.629163 -1.107347
26.633171 -1.104058
26.637164 -1.091674
26.641171 -1.060156
26.645170 -0.993363
26.649159 -0.894546
26.653173 -0.789688
26.657171 -0.699799
26.661170 -0.620342
26.665165 -0.536207
26.669378 -0.450328
26.673365 -0.387002
26.677165 -0.364699
26.681163 -0.370263
26.685162 -0.366335
26.689329 -0.328122
26.693158 -0.269415
26.697301 -0.225364
26.701163 -0.212096
26.705161 -0.213920
26.709175 -0.210086
26.713166 -0.200717
26.717172 -0.200048
26.721163 -0.213925
26.725163 -0.235297
26.729171 -0.258008
26.733170 -0.281589
26.737172 -0.301155
26.741163 -0.305752
26.745171 -0.292263
26.749163 -0.273474
26.753163 -0.267776
26.757218 -0.282249
26.761165 -0.306390
26.765163 -0.323470
26.769163 -0.329169
26.773163 -0.335842
26.777171 -0.355402
26.781171 -0.382108
26.785163 -0.398638
26.789172 -0.397886
26.793163 -0.391208
26.797171 -0.391893
26.801171 -0.396167
26.805171 -0.388707
26.809163 -0.367214
26.813170 -0.351785
26.817339 -0.361182
26.821161 -0.383799
26.825173 -0.385155
26.829420 -0.347831
26.833163 -0.292023
26.837172 -0.249816
26.841171 -0.229959
26.845163 -0.217897
26.849163 -0.203675
26.853163 -0.196685
26.857163 -0.210252
26.861171 -0.240427
26.865165 -0.267729
26.869163 -0.278289
26.873164 -0.276736
26.877163 -0.275462
26.881429 -0.275656
26.885161 -0.266497
26.889161 -0.244420
26.893161 -0.224558
26.897161 -0.225089
26.901168 -0.243307
26.905161 -0.255572
26.909161 -0.241811
26.913161 -0.202927
26.917161 -0.150644
26.921169 -0.087562
26.925168 -0.007439
26.929153  0.086355
26.933175  0.176419
26.937166  0.253642
26.941262  0.336337
26.945210  0.454495
26.949140  0.613574
26.953167  0.782452
26.957148  0.920455
26.961168  1.010018
26.965172  1.058802
26.969141  1.076694
26.973164  1.061691
26.977170  1.009981
26.981145  0.930212
26.985143  0.837600
26.989171  0.733929
26.993166  0.603865
26.997142  0.440468
27.001145  0.272077
27.005263  0.152019
27.009165  0.113310
27.013165  0.137224
27.017156  0.173266
27.021151  0.188522
27.025167  0.190505
27.029146  0.201538
27.033402  0.223341
27.037171  0.235626
27.041163  0.218145
27.045163  0.158589
27.049163  0.042913
27.053163 -0.142701
27.057170 -0.387236
27.061172 -0.630996
27.065171 -0.765489
27.069173 -0.657641
27.073165 -0.191663
27.077171  0.674970
27.081165  1.852281
27.085155  3.087884
27.089161  4.019200
27.093155  4.329323
27.097169  3.924506
27.101155  2.985766
27.105173  1.842944
27.109167  0.787557
27.113339 -0.025381
27.117435 -0.558695
27.121356 -0.835552
27.125160 -0.908406
27.129296 -0.852371
27.133165 -0.749522
27.137170 -0.655172
27.141205 -0.576685
27.145167 -0.493159
27.149171 -0.397029
27.153163 -0.310584
27.157165 -0.261603
27.161163 -0.251244
27.165170 -0.253529
27.169163 -0.244299
27.173163 -0.221547
27.177175 -0.194924
27.181165 -0.165282
27.185163 -0.124441
27.189171 -0.072846
27.193165 -0.027238
27.197168 -0.004622
27.201169 -0.001048
27.205337  0.007150
27.209168  0.038683
27.213169  0.088891
27.217161  0.139831
27.221163  0.182675
27.225161  0.220738
27.229161  0.253314
27.233163  0.271692
27.237141  0.279016
27.241172  0.302418
27.245165  0.369979
27.249139  0.478829
27.253169  0.598502
27.257163  0.704094
27.261167  0.795916
27.265165  0.885902
27.269155  0.973505
27.273171  1.042385
27.277163  1.080024
27.281164  1.093795
27.285162  1.102444
27.289171  1.114208
27.293162  1.121534
27.297171  1.119679
27.301175  1.122966
27.305173  1.154974
27.309250  1.221065
27.313291  1.294764
27.317163  1.338277
27.321163  1.336906
27.325164  1.306613
27.329184  1.269035
27.333362  1.229319
27.337295  1.180808
27.341408  1.122147
27.345170  1.060324
27.349164  0.997150
27.353164  0.922710
27.357175  0.829459
27.361165  0.727170
27.365171  0.633818
27.369170  0.552006
27.373163  0.464020
27.377165  0.354098
27.381175  0.228071
27.385165  0.105227
27.389163 -0.002937
27.393379 -0.097827
27.397170 -0.179793
27.401160 -0.237281
27.405171 -0.256816
27.409221 -0.244909
27.413170 -0.232138
27.417164 -0.245757
27.421170 -0.279312
27.425185 -0.299534
27.429170 -0.286903
27.433356 -0.260874
27.437160 -0.259029
27.441162 -0.297602
27.445161 -0.358748
27.449484 -0.410825
27.453208 -0.433826
27.457166 -0.428009
27.461165 -0.404957
27.465170 -0.375567
27.469164 -0.348237
27.473162 -0.331187
27.477164 -0.327562
27.481291 -0.330639
27.485167 -0.331250
27.489165 -0.329826
27.493163 -0.335196
27.497170 -0.350066
27.501163 -0.364027
27.505163 -0.366272
27.509163 -0.361722
27.513163 -0.367629
27.517171 -0.393270
27.521163 -0.427588
27.525163 -0.450603
27.529171 -0.454829
27.533145 -0.448441
27.537157 -0.435559
27.541163 -0.403494
27.545166 -0.340490
27.549162 -0.261405
27.553158 -0.199767
27.557237 -0.168926
27.561160 -0.144316
27.565165 -0.095918
27.569318 -0.029140
27.573236  0.020271
27.577167  0.026738
27.581161 -0.001946
27.585169 -0.041408
27.589160 -0.081694
27.593164 -0.134644
27.597159 -0.210451
27.601169 -0.294721
27.605142 -0.357721
27.609296 -0.385684
27.613170 -0.393758
27.617283 -0.404013
27.621163 -0.418757
27.625299 -0.425185
27.629165 -0.422675
27.633163 -0.431376
27.637171 -0.468364
27.641163 -0.523931
27.645172 -0.569845
27.649176 -0.588447
27.653165 -0.585678
27.657170 -0.575599
27.661283 -0.561799
27.665349 -0.540215
27.669165 -0.514938
27.673162 -0.500318
27.677358 -0.502152
27.681309 -0.503573
27.685170 -0.480686
27.689164 -0.432619
27.693175 -0.386276
27.697174 -0.366908
27.701163 -0.370725
27.705170 -0.372789
27.709298 -0.356495
27.713166 -0.324818
27.717162 -0.284016
27.721366 -0.230239
27.725163 -0.159693
27.729175 -0.083358
27.733165 -0.019988
27.737163  0.026089
27.741163  0.072507
27.745170  0.138415
27.749163  0.217965
27.753170  0.280725
27.757328  0.301372
27.761164  0.283668
27.765171  0.249424
27.769163  0.207657
27.773163  0.144202
27.777163  0.044109
27.781163 -0.083810
27.785171 -0.212838
27.789163 -0.326899
27.793163 -0.433590
27.797163 -0.544754
27.801163 -0.653896
27.805171 -0.743338
27.809163 -0.808340
27.813163 -0.860906
27.817163 -0.908457
27.821175 -0.939651
27.825166 -0.937911
27.829173 -0.904509
27.833379 -0.863271
27.837151 -0.844424
27.841156 -0.866875
27.845171 -0.934380
27.849168 -1.041871
27.853300 -1.174542
27.857168 -1.289617
27.861152 -1.295889
27.865168 -1.063120
27.869311 -0.476346
27.873162  0.486780
27.877171  1.696481
27.881164  2.869495
27.885155  3.656921
27.889300  3.804978
27.893163  3.291239
27.897163  2.326483
27.901163  1.221564
27.905432  0.230107
27.909161 -0.528831
27.913162 -1.049442
27.917245 -1.370681
27.921167 -1.527459
27.925162 -1.549487
27.929161 -1.480064
27.933161 -1.373300
27.937173 -1.266636
27.941168 -1.162719
27.945215 -1.045284
27.949240 -0.912141
27.953251 -0.786275
27.957171 -0.692193
27.961228 -0.628982
27.965170 -0.576068
27.969155 -0.523450
27.973155 -0.484439
27.977169 -0.472694
27.981302 -0.474533
27.985243 -0.455153
27.989296 -0.392964
27.993173 -0.299988
27.997281 -0.206041
28.001163 -0.129699
28.005159 -0.069638
28.009159 -0.018540
28.013170  0.025517
28.017163  0.064111
28.021161  0.105614
28.025290  0.157520
28.029165  0.213370
28.033163  0.256609
28.037175  0.280528
28.041220  0.299068
28.045162  0.333385
28.049173  0.389012
28.053175  0.450806
28.057364  0.501600
28.061169  0.540306
28.065177  0.577014
28.069171  0.615165
28.073162  0.647562
28.077161  0.670533
28.081161  0.693366
28.085169  0.727222
28.089160  0.767591
28.093168  0.795178
28.097169  0.797067
28.101161  0.782783
28.105284  0.773866
28.109169  0.778018
28.113168  0.779953
28.117162  0.761212
28.121168  0.724167
28.125170  0.690754
28.129175  0.679265
28.133237  0.687748
28.137164  0.700384
28.141165  0.704013
28.145168  0.692769
28.149145  0.659833
28.153168  0.596526
28.157164  0.506575
28.161172  0.414326
28.165171  0.346916
28.169478  0.305839
28.173158  0.262967
28.177169  0.189206
28.181169  0.085628
28.185163 -0.015994
28.189179 -0.084772
28.193165 -0.120499
28.197167 -0.146524
28.201170 -0.176894
28.205176 -0.204346
28.209172 -0.221927
28.213171 -0.240096
28.217163 -0.273003
28.221163 -0.316960
28.225358 -0.354531
28.229164 -0.378829
28.233173 -0.402559
28.237163 -0.439061
28.241170 -0.483402
28.245171 -0.520038
28.249163 -0.545717
28.253163 -0.575118
28.257171 -0.618809
28.261144 -0.662190
28.265162 -0.676307
28.269292 -0.648184
28.273170 -0.591545
28.277155 -0.526893
28.281304 -0.460041
28.285165 -0.387268
28.289163 -0.317391
28.293175 -0.275269
28.297165 -0.274950
28.301163 -0.296439
28.305175 -0.302047
28.309369 -0.276289
28.313164 -0.239169
28.317170 -0.218374
28.321164 -0.219243
28.325170 -0.227828
28.329165 -0.235773
28.333162 -0.251132
28.337171 -0.282213
28.341170 -0.319278
28.345164 -0.342139
28.349162 -0.345002
28.353164 -0.343390
28.357162 -0.351904
28.361171 -0.363887
28.365302 -0.362845
28.369172 -0.349985
28.373164 -0.347707
28.377162 -0.371812
28.381166 -0.408925
28.385175 -0.429154
28.389216 -0.418375
28.393295 -0.390337
28.397163 -0.366225
28.401175 -0.351731
28.405165 -0.340983
28.409163 -0.335034
28.413427 -0.343428
28.417376 -0.366690
28.421292 -0.388258
28.425161 -0.393657
28.429165 -0.395663
28.433379 -0.425992
28.437151 -0.490442
28.441156 -0.541827
28.445165 -0.519145
28.449230 -0.415110
28.453147 -0.285778
28.457321 -0.190947
28.461200 -0.143201
28.465168 -0.118203
28.469156 -0.094409
28.473231 -0.068076
28.477307 -0.038107
28.481160  0.004923
28.485173  0.067889
28.489167  0.140992
28.493163  0.202497
28.497163  0.239186
28.501175  0.260195
28.505174  0.288207
28.509165  0.337897
28.513171  0.406373
28.517171  0.483133
28.521163  0.562168
28.525163  0.639644
28.529336  0.702835
28.533189  0.730223
28.537172  0.710237
28.541173  0.658833
28.545163  0.609088
28.549308  0.578066
28.553165  0.550493
28.557168  0.501260
28.561216  0.426776
28.565227  0.344273
28.569158  0.265077
28.573171  0.182665
28.577163  0.090385
28.581171 -0.000573
28.585165 -0.070895
28.589155 -0.117620
28.593162 -0.159541
28.597163 -0.215090
28.601169 -0.280237
28.605160 -0.335356
28.609162 -0.374939
