4.575517  1.818213
4.579503  1.716452
4.583495  1.631121
4.587493  1.576502
4.591495  1.556073
4.595503  1.555587
4.599495  1.552054
4.603493  1.532794
4.607493  1.499464
4.611495  1.449044
4.615503  1.359336
4.619493  1.206287
4.623495  0.997641
4.627509  0.784035
4.631502  0.642907
4.635494  0.667441
4.639494  0.968673
4.643494  1.650225
4.647495  2.725647
4.651569  4.024694
4.655545  5.193286
4.659486  5.846877
4.663731  5.792414
4.667498  5.130936
4.671496  4.150946
4.675503  3.136951
4.679474  2.268552
4.683887  1.630201
4.687550  1.241189
4.691634  1.064800
4.695502  1.024701
4.699495  1.043665
4.703494  1.078245
4.707495  1.120298
4.711493  1.169929
4.715502  1.213830
4.719493  1.232986
4.723495  1.225143
4.727495  1.209542
4.731502  1.206347
4.735501  1.216832
4.739495  1.228645
4.743493  1.236534
4.747509  1.249289
4.751498  1.274863
4.755496  1.306560
4.759530  1.330406
4.763498  1.343852
4.767507  1.359845
4.771495  1.389251
4.775504  1.425760
4.779497  1.455704
4.783496  1.478943
4.787498  1.509991
4.791506  1.556955
4.795497  1.607196
4.799495  1.639785
4.803498  1.650399
4.807496  1.657757
4.811506  1.682781
4.815502  1.727490
4.819496  1.780312
4.823537  1.835567
4.827504  1.897757
4.831679  1.969260
4.835631  2.042937
4.839502  2.109267
4.844029  2.167165
4.847501  2.222390
4.851497  2.272043
4.855500  2.296829
4.859503  2.279508
4.863495  2.231205
4.867500  2.188967
4.871609  2.181638
4.875626  2.202777
4.879491  2.221676
4.883495  2.217007
4.887568  2.192587
4.891706  2.160865
4.895752  2.120823
4.899501  2.060118
4.903493  1.976161
4.907499  1.885225
4.911501  1.804514
4.915495  1.729339
4.919502  1.637375
4.923495  1.517132
4.927493  1.383583
4.931496  1.260394
4.935633  1.153778
4.939496  1.052458
4.943564  0.950286
4.947478  0.857782
4.951506  0.786494
4.955483  0.730385
4.959498  0.674025
4.963500  0.615916
4.967481  0.569556
4.971495  0.539787
4.975798  0.510754
4.979497  0.463078
4.983490  0.396623
4.987504  0.329535
4.991690  0.274978
4.995504  0.225510
4.999497  0.165963
5.003496  0.097919
5.007497  0.041868
5.011495  0.011908
5.015505 -0.003828
5.019495 -0.029105
5.023498 -0.069444
5.027496 -0.106854
5.031497 -0.126089
5.035504 -0.135064
5.039504 -0.152021
5.043723 -0.178753
5.047495 -0.195711
5.051506 -0.184090
5.055488 -0.146967
5.059524 -0.105622
5.063508 -0.078589
5.067496 -0.068777
5.071497 -0.069880
5.075496 -0.079517
5.079497 -0.101397
5.083504 -0.135478
5.087496 -0.172329
5.091497 -0.202001
5.095498 -0.225099
5.099508 -0.248406
5.103497 -0.270263
5.107504 -0.278266
5.111498 -0.264966
5.115503 -0.239555
5.119498 -0.218954
5.123501 -0.211788
5.127495 -0.216237
5.131495 -0.231281
5.135495 -0.263849
5.139501 -0.320098
5.143503 -0.390421
5.147494 -0.450630
5.151497 -0.484180
5.155496 -0.499748
5.159503 -0.519284
5.163493 -0.548126
5.167498 -0.564068
5.171504 -0.541848
5.175592 -0.485598
5.179505 -0.429109
5.183497 -0.402188
5.187496 -0.403978
5.191497 -0.414278
5.195495 -0.424046
5.199505 -0.443162
5.203495 -0.477663
5.207497 -0.511904
5.211496 -0.522393
5.215497 -0.502871
5.219503 -0.465354
5.223511 -0.419430
5.227495 -0.361638
5.231497 -0.287128
5.235496 -0.201713
5.239498 -0.113808
5.243506 -0.018058
5.247507  0.101619
5.251504  0.248266
5.255499  0.398487
5.259626  0.518506
5.263500  0.589173
5.267499  0.609585
5.271500  0.579790
5.275476  0.491538
5.279500  0.345299
5.283496  0.172306
5.287502  0.024131
5.291526 -0.069925
5.295645 -0.129738
5.299499 -0.200608
5.303496 -0.305533
5.307497 -0.427364
5.311495 -0.534604
5.315504 -0.614110
5.319504 -0.674015
5.323497 -0.723404
5.327505 -0.762155
5.331674 -0.791719
5.335494 -0.824963
5.339495 -0.880308
5.343496 -0.971436
5.347502 -1.105175
5.351493 -1.284365
5.355495 -1.504285
5.359494 -1.734976
5.363502 -1.896420
5.367493 -1.854566
5.371579 -1.466670
5.375502 -0.665690
5.379498  0.466144
5.383496  1.682017
5.387498  2.636549
5.391497  3.028120
5.395477  2.753704
5.399507  1.960689
5.403506  0.943163
5.407498 -0.025457
5.411496 -0.788564
5.415496 -1.298944
5.419506 -1.571992
5.423506 -1.655442
5.427491 -1.615358
5.431498 -1.519703
5.435474 -1.418959
5.439472 -1.333763
5.443623 -1.257384
5.447632 -1.175096
5.451496 -1.087961
5.455496 -1.017413
5.459496 -0.982957
5.463496 -0.978559
5.467504 -0.979003
5.471496 -0.970146
5.475496 -0.963725
5.479496 -0.974754
5.483496 -0.989492
5.487504 -0.970588
5.491596 -0.899937
5.495503 -0.804220
5.499504 -0.727427
5.503512 -0.685187
5.507504 -0.655273
5.511496 -0.609116
5.515496 -0.543927
5.519496 -0.480973
5.523498 -0.437267
5.527504 -0.408063
5.531496 -0.379971
5.535497 -0.351403
5.539496 -0.328891
5.543669 -0.306032
5.547497 -0.259417
5.551555 -0.172383
5.555503 -0.056716
5.559554  0.056995
5.563613  0.148318
5.567524  0.220092
5.571503  0.286091
5.575504  0.354380
5.579471  0.422371
5.583499  0.482472
5.587495  0.530423
5.591493  0.565677
5.595549  0.583998
5.599498  0.577932
5.603496  0.548949
5.607496  0.512116
5.611496  0.481449
5.615504  0.453966
5.619496  0.416860
5.623496  0.370056
5.627621  0.330786
5.631498  0.309759
5.635496  0.290864
5.639498  0.244472
5.643504  0.158235
5.647496  0.046027
5.651496 -0.073300
5.655503 -0.196320
5.659495 -0.327939
5.663502 -0.460181
5.667494 -0.570708
5.671501 -0.645923
5.675502 -0.696821
5.679493 -0.745454
5.683495 -0.799450
5.687493 -0.845679
5.691495 -0.869486
5.695578 -0.876342
5.699490 -0.890044
5.703495 -0.927467
5.707493 -0.977420
5.711506 -1.009475
5.715496 -1.003552
5.719589 -0.963700
5.723499 -0.903556
5.727617 -0.832261
5.731479 -0.760269
5.735496 -0.706400
5.739496 -0.686866
5.743496 -0.697230
5.747499 -0.712076
5.751502 -0.708084
5.755498 -0.685999
5.759502 -0.665371
5.763500 -0.659698
5.767492 -0.663655
5.771500 -0.665161
5.775492 -0.660663
5.779492 -0.651563
5.783490 -0.633069
5.787490 -0.598496
5.791495 -0.553286
5.795499 -0.515843
5.799492 -0.501942
5.803494 -0.510348
5.807492 -0.525999
5.811492 -0.537951
5.815500 -0.550560
5.819492 -0.573846
5.823492 -0.606646
5.827492 -0.635685
5.831502 -0.651646
5.835496 -0.659832
5.839494 -0.669685
5.843667 -0.676467
5.847706 -0.662333
5.851502 -0.620431
5.855504 -0.569384
5.859496 -0.531614
5.863501 -0.499718
5.867632 -0.437484
5.871641 -0.319952
5.875502 -0.167657
5.879720 -0.034296
5.883496  0.040338
5.887504  0.058513
5.891504  0.045172
5.895504  0.013444
5.899496 -0.040169
5.903504 -0.112774
5.907671 -0.182723
5.911502 -0.227502
5.915503 -0.247413
5.919494 -0.263072
5.923495 -0.291050
5.927493 -0.328884
5.931495 -0.364852
5.935508 -0.395082
5.939498 -0.424292
5.943496 -0.452677
5.947504 -0.471647
5.951496 -0.476572
5.955496 -0.478211
5.959615 -0.494271
5.963496 -0.528303
5.967503 -0.561576
5.971712 -0.570753
5.975756 -0.552219
5.979504 -0.523051
5.983496 -0.497148
5.987496 -0.468052
5.991496 -0.420967
5.995502 -0.355347
5.999501 -0.286319
6.003496 -0.226252
6.007502 -0.172636
6.011500 -0.112499
6.015496 -0.032009
6.019505  0.077240
6.023564  0.215152
6.027614  0.374816
6.031496  0.546642
6.035515  0.715077
6.039498  0.853194
6.043536  0.934316
6.047498  0.951397
6.051496  0.913332
6.055504  0.824035
6.059496  0.679922
6.063506  0.488855
6.067730  0.278240
6.071502  0.078163
6.075494 -0.096757
6.079494 -0.242921
6.083506 -0.351328
6.087498 -0.407773
6.091496 -0.414201
6.095501 -0.402173
6.099495 -0.413375
6.103494 -0.463376
6.107502 -0.530391
6.111494 -0.583035
6.115494 -0.615259
6.119494 -0.651980
6.123494 -0.725888
6.127502 -0.854091
6.131494 -1.033356
6.135494 -1.244536
6.139495 -1.445644
6.143495 -1.551000
6.147475 -1.424979
6.151477 -0.926694
6.155545 -0.001858
6.159505  1.234783
6.163492  2.492528
6.167485  3.401660
6.171472  3.680885
6.175472  3.278898
6.179472  2.389799
6.183772  1.332734
6.187677  0.389312
6.191491 -0.295308
6.195493 -0.712358
6.199492 -0.926335
6.203493 -1.007742
6.207499 -1.002680
6.211493 -0.941801
6.215491 -0.856522
6.219493 -0.774237
6.223507 -0.702303
6.227763 -0.629941
6.231495 -0.551520
6.235509 -0.482061
6.239498 -0.443432
6.243496 -0.437939
6.247496 -0.443114
6.251497 -0.434753
6.255504 -0.409658
6.259496 -0.381603
6.263496 -0.360011
6.267504 -0.341116
6.271497 -0.319592
6.275477 -0.298838
6.279504 -0.283405
6.283498 -0.265860
6.287496 -0.229597
6.291506 -0.167655
6.295498 -0.094945
6.299496 -0.036281
6.303496 -0.000144
6.307496  0.032700
6.311506  0.089202
6.315488  0.173272
6.319484  0.263948
6.323493  0.346710
6.327491  0.432433
6.331496  0.535158
6.335494  0.644953
6.339757  0.738456
6.343697  0.807484
6.347502  0.861510
6.351503  0.906058
6.355493  0.933788
6.359507  0.940158
6.363498  0.938882
6.367496  0.952861
6.371506  0.987684
6.375670  1.021416
6.379546  1.029251
6.383505  1.014301
6.387493  1.003624
6.391495  1.013918
6.395508  1.029814
6.399622  1.020824
6.403502  0.976465
6.407494  0.917748
6.411494  0.872004
6.415494  0.842307
6.419495  0.806747
6.423502  0.744532
6.427496  0.655783
6.431498  0.554405
6.435496  0.449471
6.439496  0.342673
6.443504  0.242865
6.447496  0.171510
6.451528  0.143834
6.455611  0.146839
6.459472  0.146729
6.463487  0.122596
6.467491  0.085281
6.471739  0.057154
6.475506  0.041524
6.479478  0.023272
6.483710 -0.004472
6.487495 -0.029572
6.491503 -0.041242
6.495495 -0.048933
6.499496 -0.070088
6.503508 -0.103437
6.507498 -0.125629
6.511496 -0.118010
6.515504 -0.090342
6.519506 -0.070706
6.523495 -0.072854
6.527497 -0.081170
6.531506 -0.071746
6.535498 -0.042309
6.539496 -0.012733
6.543496  0.002633
6.547496  0.012250
6.551505  0.032055
6.555495  0.060718
6.559497  0.078766
6.563495  0.069924
6.567497  0.035522
6.571504 -0.011880
6.575505 -0.129159
6.579503 -0.190911
6.583479 -0.226829
6.587508 -0.209321
6.591493 -0.135295
6.595492 -0.047574
6.599505 -0.008379
6.603497 -0.044329
6.607497 -0.120087
6.611504 -0.167670
6.615504 -0.145433
6.619747 -0.069396
6.623492  0.014476
6.627496  0.078656
6.631498  0.125359
6.635498  0.163009
6.639494  0.191122
6.643542  0.207493
6.647494  0.214564
6.651490  0.210623
6.655495  0.183065
6.659488  0.122186
6.663495  0.041283
6.667501 -0.026610
6.671496 -0.057853
6.675476 -0.061080
6.679506 -0.065996
6.683498 -0.089992
6.687497 -0.119866
6.691478 -0.128211
6.695476 -0.105387
6.699498 -0.070334
6.703489 -0.048222
6.707493 -0.043988
6.711508 -0.044509
6.715498 -0.041964
6.719504 -0.044197
6.723500 -0.060128
6.727599 -0.084339
6.731496 -0.104754
6.735496 -0.121860
6.739506 -0.148671
6.743496 -0.188733
6.747496 -0.223904
6.751504 -0.230521
6.755504 -0.202608
6.759541 -0.153160
6.763628 -0.095335
6.767489 -0.030850
6.771488  0.039725
6.775492  0.103252
6.779488  0.141113
6.783503  0.150533
6.787497  0.151372
6.791495  0.167256
6.795497  0.203293
6.799582  0.247417
6.803498  0.291568
6.807496  0.343889
6.811496  0.417157
6.815504  0.510979
6.819666  0.611525
6.823496  0.706821
6.827496  0.795316
6.831496  0.876860
6.835504  0.940581
6.839496  0.969908
6.843496  0.961723
6.847496  0.932570
6.851507  0.897819
6.855499  0.848751
6.859496  0.760316
6.863496  0.622921
6.867496  0.460361
6.871504  0.314607
6.875503  0.215697
6.879498  0.165954
6.883505  0.149769
6.887504  0.151918
6.891504  0.159312
6.895505  0.151336
6.899495  0.106760
6.903497  0.026419
6.907495 -0.063174
6.911497 -0.138848
6.915503 -0.207600
6.919629 -0.295418
6.923504 -0.414587
6.927498 -0.553877
6.931505 -0.696498
6.935502 -0.825479
6.939502 -0.893371
6.943504 -0.790465
6.947497 -0.370344
6.951507  0.454325
6.955498  1.608845
6.959496  2.833262
6.963497  3.773854
6.967514  4.146452
6.971496  3.873206
6.975496  3.100699
6.979495  2.094067
6.983577  1.094983
6.987495  0.235016
6.991506 -0.463542
6.995504 -1.013858
6.999504 -1.378291
7.003506 -1.473217
7.007493 -1.283526
7.011502 -0.933036
7.015493 -0.598396
7.019483 -0.379633
7.023496 -0.271738
7.027495 -0.221257
7.031500 -0.184100
7.035842 -0.146937
7.039502 -0.115882
7.043500 -0.092849
7.047619 -0.065072
7.051545 -0.018019
7.055500  0.046528
7.059624  0.113850
7.063737  0.178640
7.067637  0.253606
7.071634  0.350737
7.075887  0.465813
7.079565  0.591122
7.083537  0.732886
7.087591  0.901807
7.091546  1.088616
7.095550  1.258513
7.099650  1.372598
7.103600  1.415217
7.107863  1.405272
7.111549  1.385658
7.115764  1.396962
7.119547  1.449145
7.123496  1.514229
7.127490  1.551163
7.131502  1.537176
7.135497  1.474071
7.139496  1.375850
7.143496  1.261321
7.147498  1.152624
7.151504  1.067091
7.155496  1.005641
7.159496  0.954038
7.163498  0.899279
7.167496  0.842273
7.171504  0.791993
7.175496  0.750766
7.179496  0.711736
7.183561  0.672180
7.187504  0.642382
7.191501  0.633033
7.195494  0.634493
7.199494  0.617615
7.203494  0.561040
7.207502  0.473506
7.211494  0.383169
7.215494  0.308055
7.219506  0.243682
7.223497  0.176454
7.227494  0.098506
7.231503  0.006898
7.235493 -0.101316
7.239669 -0.223266
7.243493 -0.341216
7.247531 -0.428086
7.251547 -0.468115
7.255545 -0.471566
7.259500 -0.464800
7.263502 -0.465302
7.267540 -0.471603
7.271825 -0.479755
7.275503 -0.501875
7.279476 -0.558427
7.283494 -0.650566
7.287494 -0.747007
7.291613 -0.806242
7.295507 -0.812511
7.299540 -0.784137
7.303609 -0.747237
7.307501 -0.711544
7.311658 -0.675187
7.315490 -0.640771
7.319500 -0.613460
7.323572 -0.586497
7.327499 -0.545374
7.331493 -0.495334
7.335692 -0.473513
7.339500 -0.514402
7.343762 -0.598095
7.347498 -0.651912
7.351498 -0.621354
7.355625 -0.525069
7.359572 -0.421430
7.363527 -0.336327
7.367531 -0.243343
7.371503 -0.108400
7.375592  0.059079
7.379508  0.205512
7.383551  0.287569
7.387504  0.319705
7.391537  0.351554
7.395506  0.405267
7.399507  0.460649
7.403540  0.497652
7.407715  0.521696
7.411496  0.540144
7.415544  0.535381
7.419634  0.474949
7.423504  0.348899
7.427497  0.191758
7.431503  0.055725
7.435505 -0.040134
7.439495 -0.121471
7.443497 -0.218746
7.447496 -0.331957
7.451502 -0.441301
7.455494 -0.538950
7.459494 -0.635231
7.463503 -0.733278
7.467503 -0.809736
7.471501 -0.833196
7.475532 -0.801878
7.479502 -0.750548
7.483517 -0.715796
7.487470 -0.706804
7.491498 -0.714847
7.495557 -0.735154
7.499493 -0.765128
7.503497 -0.788028
7.507535 -0.776324
7.511497 -0.720922
7.515494 -0.650493
7.519493 -0.606046
7.523497 -0.590069
7.527501 -0.551846
7.531532 -0.435976
7.535500 -0.247166
7.539635 -0.061639
7.543539  0.033140
7.547544  0.018410
7.551708 -0.033105
7.555564 -0.021116
7.559658  0.092628
7.563571  0.265717
7.567593  0.433808
7.571474  0.558989
7.575535  0.627449
7.579638  0.640462
7.583493  0.622678
7.587632  0.615096
7.591501  0.636475
7.595492  0.658344
7.599496  0.635377
7.603730  0.557445
7.607502  0.459316
7.611494  0.380802
7.615501  0.328364
7.619503  0.279643
7.623492  0.216992
7.627494  0.144697
7.631665  0.072280
7.635494 -0.006959
7.639504 -0.109127
7.643494 -0.233492
7.647495 -0.355344
7.651650 -0.451868
7.655505 -0.526913
7.659476 -0.598234
7.663503 -0.665215
7.667554 -0.705957
7.671834 -0.708281
7.675546 -0.689464
7.679498 -0.679128
7.683669 -0.688375
7.687471 -0.700732
7.691553 -0.695840
7.695501 -0.679892
7.699494 -0.685372
7.703500 -0.739589
7.707497 -0.839677
7.711592 -0.958617
7.715545 -1.067076
7.719496 -1.137143
7.723596 -1.114084
7.727618 -0.891029
7.731607 -0.341637
7.735552  0.590521
7.739604  1.815945
7.743501  3.097385
7.747496  4.122592
7.751502  4.619968
7.755587  4.476532
7.759497  3.792008
7.763633  2.817056
7.767506  1.817154
7.771499  0.964860
7.775496  0.317253
7.779505 -0.140414
7.783496 -0.438559
7.787497 -0.600719
7.791509 -0.658712
7.795498 -0.666443
7.799496 -0.680194
7.803504 -0.723075
7.807496 -0.776447
7.811504 -0.809171
7.815496 -0.810708
7.819496 -0.792843
7.823496 -0.765522
7.827506 -0.723607
7.831507 -0.663188
7.835486 -0.600986
7.839507 -0.562892
7.843503 -0.552085
7.847555 -0.539711
7.851503 -0.493847
7.855507 -0.413689
7.859551 -0.329050
7.863505 -0.265032
7.867560 -0.212212
7.871474 -0.139690
7.875500 -0.037404
7.879496  0.065865
7.883634  0.131362
7.887501  0.150068
7.891479  0.152121
7.895537  0.181404
7.899675  0.259601
7.903494  0.375856
7.907622  0.513245
7.911687  0.671126
7.915638  0.845803
7.919511  0.998974
7.923660  1.070560
7.927586  1.037692
7.931617  0.943374
7.935687  0.819266
7.939570  0.584815
7.943713  0.121624
8.127982 -0.517041
8.129968 -1.080280
8.132234 -1.352715
8.134328 -1.336342
8.136433 -1.189906
8.138729 -1.066649
8.140918 -1.027441
8.142902 -1.052685
8.144725 -1.092234
8.146876 -1.104667
8.148864 -1.074102
8.151310 -1.010012
8.153453 -0.936113
8.155620 -0.876674
8.157770 -0.847234
8.159777 -0.848375
8.163506 -0.863254
8.167492 -0.868183
8.171496 -0.853794
8.175504 -0.833334
8.179504 -0.824805
8.183498 -0.826515
8.187623 -0.815287
8.191745 -0.772805
8.195497 -0.712653
8.199477 -0.672048
8.203499 -0.671878
8.207670 -0.693639
8.211499 -0.701059
8.215641 -0.676627
8.219552 -0.631283
8.223499 -0.583071
8.227503 -0.536526
8.231548 -0.489197
8.235500 -0.448711
8.239566 -0.428293
8.243506 -0.428123
8.247495 -0.435508
8.251488 -0.445840
8.255500 -0.471941
8.259499 -0.525487
8.263500 -0.596042
8.267503 -0.659808
8.271498 -0.708923
8.275493 -0.757467
8.279500 -0.810739
8.283497 -0.844000
8.287496 -0.828561
8.291496 -0.772539
8.295492 -0.719128
8.299481 -0.703425
8.307491 -0.724062
8.311491 -0.761122
8.315482 -0.807206
8.319485 -0.867805
8.323493 -0.938535
8.327494 -0.999652
8.331494 -1.038189
8.335501 -1.064904
8.339494 -1.099024
8.343502 -1.136627
8.347502 -1.141794
8.351555 -1.076870
8.355502 -0.941336
8.359502 -0.771144
8.363471 -0.597139
8.367499 -0.419701
8.371534 -0.234089
8.375499 -0.061244
8.379501  0.069242
8.383500  0.157244
8.387497  0.229347
8.391718  0.296696
8.395500  0.332102
8.399494  0.297452
8.403474  0.190394
8.407566  0.056214
8.411589 -0.053036
8.415573 -0.126746
8.419527 -0.190876
8.423578 -0.255255
8.427557 -0.284703
8.431498 -0.240852
8.435496 -0.146350
8.439629 -0.079155
8.443671 -0.086218
8.447503 -0.121392
8.451495 -0.097347
8.455670  0.007852
8.459558  0.123183
8.463542  0.156457
8.467498  0.068140
8.471634 -0.111556
8.487618 -0.299154
8.490312 -0.383019
8.492314 -0.251050
8.495559  0.185967
8.499504  0.963089
8.503708  2.006239
8.507494  3.088451
8.511496  3.869061
8.515494  4.044595
8.519530  3.532680
8.523494  2.537244
8.527503  1.418605
8.531496  0.470725
8.535521 -0.205860
8.539501 -0.654839
8.543520 -0.937101
8.547501 -1.071503
8.551618 -1.071571
8.555501 -0.989868
8.559499 -0.899074
8.563500 -0.838216
8.567622 -0.797494
8.571487 -0.758569
8.575487 -0.731890
8.579495 -0.739560
8.583494 -0.770155
8.587555 -0.772901
8.591749 -0.706932
8.595493 -0.586577
8.599715 -0.465079
8.603687 -0.375914
8.607498 -0.302846
8.611484 -0.211387
8.615529 -0.097558
8.619520  0.009207
8.623665  0.090904
8.627616  0.170446
8.631582  0.282116
8.635562  0.425824
8.639626  0.573991
8.643539  0.714354
8.647505  0.853459
8.651495  0.975729
8.655504  1.030899
8.659495  0.980843
8.663497  0.848008
8.667494  0.702255
8.671504  0.599350
8.675504  0.541287
8.679504  0.498657
8.683762  0.457357
8.687496  0.426032
8.691494  0.402832
8.695494  0.364473
8.699502  0.306663
8.703553  0.274240
8.707501  0.319549
8.711476  0.434921
8.715475  0.551020
8.719476  0.603122
8.723474  0.584099
8.727491  0.533610
8.731474  0.490782
8.735475  0.464218
 8.739755  0.059818
 8.743713 -0.000480
 8.747552 -0.014237
 8.751498  0.025722
 8.755535  0.085388
 8.759621  0.124658
 8.763498  0.131575
 8.767500  0.120585
 8.771497  0.100971
 8.775479  0.056784
 8.779500 -0.034548
 8.783502 -0.166547
 8.787775 -0.296065
 8.791502 -0.376163
 8.795663 -0.391908
 8.799625 -0.358784
 8.803595 -0.294998
 8.807566 -0.211240
 8.811570 -0.124840
 8.815495 -0.062917
 8.819505 -0.042642
 8.823948 -0.058296
 8.827503 -0.094215
 8.831495 -0.146052
 8.835500 -0.223033
 8.839496 -0.326928
 8.843504 -0.433494
 8.847480 -0.503878
 8.851496 -0.518589
 8.855680 -0.495913
 8.859500 -0.471987
 8.863484 -0.466540
 8.867500 -0.475549
 8.871478 -0.493444
 8.875482 -0.526606
 8.879834 -0.577478
 8.883533 -0.627123
 8.887502 -0.647374
 8.891501 -0.629181
 8.895542 -0.590563
 8.899500 -0.555132
 8.903517 -0.528526
 8.907499 -0.501215
 8.911500 -0.471666
 8.915502 -0.455336
 8.919548 -0.462959
 8.923500 -0.474915
 8.927539 -0.447807
 8.931597 -0.350645
 8.935558 -0.190603
 8.939543 -0.003838
 8.943498  0.168845
 8.947548  0.296352
 8.951619  0.366249
 8.955699  0.397154
 8.959587  0.435319
 8.963601  0.516576
 9.012681  0.626813
 9.014905  0.712083
 9.016916  0.725172
 9.018731  0.653137
 9.020506  0.512952
 9.022714  0.340682
 9.024913  0.181881
 9.027377  0.074279
 9.029512  0.028116
 9.031807  0.019566
 9.034055  0.003061
 9.036056 -0.061744
 9.039493 -0.180149
 9.043496 -0.312253
 9.047495 -0.400264
 9.051540 -0.416540
 9.055685 -0.383768
 9.059501 -0.342407
 9.063506 -0.303969
 9.067506 -0.247313
 9.071558 -0.159131
 9.075506 -0.062621
 9.079504  0.005804
 9.083478  0.043336
 9.087503  0.087698
 9.091501  0.168895
 9.095496  0.266844
 9.099804  0.331740
 9.103500  0.337459
 9.107657  0.298405
 9.111501  0.239164
 9.115499  0.165118
 9.119500  0.068051
 9.123502 -0.046776
 9.127548 -0.146333
 9.131652 -0.183145
 9.135626 -0.123534
 9.139607  0.025292
 9.143535  0.202361
 9.147612  0.316034
 9.151502  0.305516
 9.155686  0.190381
 9.159574  0.055279
 9.163536 -0.015919
 9.167587  0.000323
 9.171577  0.054883
 9.179498  0.066405
 9.183493 -0.020085
 9.187600 -0.205731
 9.191500 -0.452163
 9.195497 -0.701783
 9.199496 -0.874465
 9.203497 -0.857067
 9.207496 -0.526089
 9.211503  0.184029
 9.215589  1.202030
 9.219490  2.289914
 9.223743  3.109554
 9.227535  3.377492
 9.231502  3.016190
 9.235563  2.186258
 9.239619  1.175578
 9.243502  0.237579
 9.247494 -0.506780
 9.251502 -1.058709
 9.255502 -1.464163
 9.259478 -1.746721
 9.263474 -1.896825
 9.267506 -1.907256
 9.271503 -1.809372
 9.275487 -1.667613
 9.279495 -1.537258
 9.283501 -1.435203
 9.287595 -1.352005
 9.291500 -1.278903
 9.295497 -1.214616
 9.299496 -1.154246
 9.303509 -1.086539
 9.307497 -1.008382
 9.311495 -0.935827
 9.315497 -0.890308
 9.319495 -0.871335
 9.323505 -0.850279
 9.327504 -0.798414
 9.331575 -0.718390
 9.335497 -0.639098
 9.339509 -0.580591
 9.343499 -0.536482
 9.347497 -0.492256
 9.351496 -0.445158
 9.355496 -0.396319
 9.359508 -0.334116
 9.363507 -0.241667
 9.367496 -0.122232
 9.371482 -0.005317
 9.375503  0.080871
 9.379490  0.138595
 9.383497  0.194152
 9.387488  0.264972
 9.391506  0.344030
 9.395509  0.417969
 9.399503  0.485932
 9.403504  0.549810
 9.407498  0.595950
 9.411503  0.604665
 9.415496  0.580987
 9.419669  0.560513
 9.423494  0.571056
 9.427667  0.594323
 9.431504  0.581966
 9.435494  0.514387
 9.439495  0.430931
 9.443502  0.390208
 9.447493  0.406527
 9.451497  0.440259
 9.455502  0.452139
 9.459480  0.448990
 9.463495  0.462194
 9.467631  0.493854
 9.471500  0.507958
 9.475498  0.477594
 9.479478  0.420755
 9.483496  0.374723
 9.487496  0.345315
 9.491802  0.302614
 9.495495  0.229052
 9.499494  0.148927
 9.503502  0.093345
 9.507493  0.050054
 9.511495 -0.024829
 9.515712 -0.142052
 9.519505 -0.251926
 9.523493 -0.300257
 9.527502 -0.297320
 9.531502 -0.305645
 9.535502 -0.358876
 9.539488 -0.418222
 9.543506 -0.425344
 9.547499 -0.382469
 9.551688 -0.353041
 9.555502 -0.380445
 9.559502 -0.432508
 9.563496 -0.444875
 9.567502 -0.402786
 9.571494 -0.353408
 9.575494 -0.339398
 9.579494 -0.348497
 9.583494 -0.343829
 9.587494 -0.324260
 9.591501 -0.326009
 9.595495 -0.364513
 9.599577 -0.403169
 9.603498 -0.397817
 9.607496 -0.357450
 9.611496 -0.336620
 9.615496 -0.366518
 9.619495 -0.415143
 9.623503 -0.428738
 9.627500 -0.397655
 9.631504 -0.360055
 9.635504 -0.344367
 9.639495 -0.333583
 9.643497 -0.299111
 9.647503 -0.251789
 9.651499 -0.233733
 9.655506 -0.258348
 9.659684 -0.281617
 9.663551 -0.249373
 9.667502 -0.162009
 9.671601 -0.072662
 9.675502 -0.022578
 9.679502  0.001079
 9.683497  0.032924
 9.687496  0.071160
 9.691496  0.075424
 9.695496  0.024455
 9.699504 -0.047487
 9.703496 -0.089218
 9.707496 -0.095200
 9.711506 -0.105961
 9.715498 -0.145935
 9.719504 -0.186644
 9.723485 -0.187465
 9.727498 -0.155482
 9.731495 -0.138874
 9.735493 -0.161102
 9.739496 -0.185198
 9.743502 -0.157046
 9.747843 -0.069637
 9.751495  0.037781
 9.755579  0.143610
 9.759541  0.282537
 9.763490  0.501706
 9.767501  0.787136
 9.771498  1.058636
 9.775495  1.245479
 9.779503  1.346600
 9.783497  1.401603
 9.787509  1.421549
 9.791498  1.376577
 9.795666  1.250961
 9.799537  1.081435
 9.803504  0.921654
 9.807496  0.781037
 9.811496  0.622363
 9.815496  0.422756
 9.819496  0.215488
 9.823504  0.054963
 9.827496 -0.048860
 9.831619 -0.139473
 9.835502 -0.254382
 9.839494 -0.376815
 9.843494 -0.462889
 9.847495 -0.504309
 9.851508 -0.538591
 9.855496 -0.595515
 9.859496 -0.660630
 9.863496 -0.711060
 9.867504 -0.770950
 9.871496 -0.898265
 9.875496 -1.107252
 9.879498 -1.325880
 9.883496 -1.444426
 9.887504 -1.386569
 9.891496 -1.110447
 9.895496 -0.561479
 9.899496  0.312355
 9.903496  1.446537
 9.907549  2.568969
 9.911498  3.286136
 9.915668  3.327082
 9.919502  2.725436
 9.923494  1.758541
 9.927495  0.725078
 9.931494 -0.202955
 9.935512 -0.958214
 9.939500 -1.504134
 9.943599 -1.827940
 9.947500 -1.962578
 9.951499 -1.953021
 9.955498 -1.804015
 9.959495 -1.508459
 9.963495 -1.127607
 9.967502 -0.795574
 9.971493 -0.624489
 9.975495 -0.614856
 9.979493 -0.663601
 9.983495 -0.663407
 9.987501 -0.595953
 9.991495 -0.523467
 9.995494 -0.496397
 9.999495 -0.492564
10.003496 -0.456598
10.007500 -0.377818
10.011494 -0.300481
10.015502 -0.256458
10.019604 -0.217672
10.023505 -0.136868
10.027504 -0.020267
10.031497  0.069675
10.035504  0.088997
10.039499  0.066575
10.043495  0.064364
10.047718  0.096303
10.051537  0.118813
10.055545  0.110036
10.059502  0.125637
10.063502  0.241686
10.067578  0.452045
10.071492  0.658901
10.075500  0.773217
10.079477  0.797946
10.083488  0.799782
10.087502  0.823729
10.091500  0.860574
10.095492  0.889720
10.099500  0.922642
10.103518  0.982662
10.107822  1.052836
10.111494  1.078142
10.115494  1.035543
10.119507  0.977594
10.123490  0.978694
10.127499  1.047385
10.131502  1.118988
10.135495  1.135947
10.139501  1.109125
10.143495  1.086006
10.147495  1.078304
10.151570  1.049943
10.155617  0.978097
10.159610  0.896232
10.164396  0.852488
10.167497  0.837928
10.171496  0.786950
10.175496  0.657558
10.179496  0.488527
10.183504  0.355803
10.187496  0.283052
10.191503  0.222736
10.195499  0.129449
10.199506  0.023394
10.203504 -0.041335
10.207504 -0.055439
10.211496 -0.067941
10.215503 -0.116336
10.219510 -0.174000
10.223498 -0.189148
10.227506 -0.158578
10.231503 -0.133610
10.235504 -0.152342
10.239503 -0.193198
10.243647 -0.214048
10.247508 -0.218950
10.251477 -0.250589
10.255484 -0.313074
10.259501 -0.340111
10.263496 -0.266611
10.267484 -0.114000
10.271494  0.023757
10.275486  0.077191
10.279493  0.061543
10.283501  0.033328
10.287495  0.011910
10.291749 -0.027701
10.295552 -0.092343
10.299496 -0.138793
10.303502 -0.123224
10.307494 -0.063552
10.311494 -0.026248
10.315494 -0.048766
10.319509 -0.095933
10.323499 -0.108219
10.327496 -0.079268
10.331504 -0.060769
10.335497 -0.090872
10.339496 -0.144424
10.343497 -0.169142
10.347497 -0.153828
10.351477 -0.136884
10.355506 -0.148073
10.359507 -0.165187
10.363480 -0.144288
10.367504 -0.080902
10.371495 -0.017583
10.375500  0.012102
10.379495  0.024535
10.383506  0.055844
10.387498  0.104930
10.391498  0.129543
10.395700  0.100960
10.399498  0.042316
10.403496 -0.002139
10.407496 -0.024471
10.411496 -0.057689
10.415623 -0.121284
10.419498 -0.184298
10.423496 -0.198147
10.427506 -0.154859
10.431499 -0.093060
10.435496 -0.045479
10.439504  0.000397
10.443496  0.077026
10.447496  0.185177
10.451668  0.288895
10.455494  0.363230
10.459501  0.426481
10.463495  0.511097
10.467650  0.615044
10.471704  0.702031
10.475502  0.747004
10.479494  0.759516
10.483502  0.754220
10.487494  0.715713
10.491496  0.611179
10.495494  0.436295
10.499494  0.232116
10.503501  0.047548
10.507496 -0.105096
10.511496 -0.244213
10.515474 -0.373279
10.519608 -0.461243
10.523505 -0.480049
10.527499 -0.450453
10.531717 -0.431154
10.535496 -0.458313
10.539496 -0.510605
10.543496 -0.545369
10.547496 -0.559028
10.551504 -0.595009
10.555496 -0.693013
10.559496 -0.848212
10.563496 -1.029300
10.567508 -1.219028
10.571499 -1.406369
10.575492 -1.524676
10.579536 -1.417936
10.583479 -0.910961
10.587493  0.052710
10.591651  1.325698
10.595493  2.594257
10.599495  3.502414
10.603502  3.793134
10.607503  3.410198
10.611504  2.512308
10.615497  1.390734
10.619495  0.341520
10.623497 -0.442094
10.627503 -0.913481
10.631497 -1.137712
10.635616 -1.209221
10.639505 -1.192302
10.643495 -1.122996
10.647710 -1.036471
10.651495 -0.966449
10.655475 -0.918549
10.659500 -0.865246
10.663500 -0.781501
10.667500 -0.677799
10.671496 -0.585820
10.675625 -0.516266
10.679594 -0.446845
10.683494 -0.357453
10.687502 -0.266119
10.691494 -0.216206
10.695494 -0.226708
10.699494 -0.268020
10.703494 -0.296468
10.707502 -0.304465
10.711494 -0.321097
10.715495 -0.362383
10.719494 -0.398954
10.723495 -0.387542
10.727476 -0.326360
10.731496 -0.261451
10.735494 -0.234869
10.739495 -0.239154
10.743493 -0.231895
10.747502 -0.188403
10.751493 -0.127883
10.755495 -0.088062
10.759493 -0.086891
10.763495 -0.112850
10.767502  0.367674
10.771496  0.405008
10.775499  0.418913
10.779495  0.422392
10.783493  0.445194
10.787502  0.489549
10.791494  0.527431
10.795495  0.542032
10.799493  0.553059
10.803548  0.589077
10.807501  0.644481
10.811495  0.681636
10.815493  0.678568
10.819507  0.658718
10.823503  0.660941
10.827496  0.688618
10.831496  0.705662
10.835496  0.684265
10.839504  0.638743
10.843656  0.599615
10.847496  0.566317
10.851496  0.506329
10.855496  0.403187
10.859503  0.287535
10.863497  0.207073
10.867496  0.173164
10.871611  0.153721
10.875503  0.120935
10.879550  0.087251
10.883691  0.078720
10.887504  0.085732
10.891494  0.065639
10.895502 -0.003112
10.899494 -0.091401
10.903494 -0.157792
10.907494 -0.203124
10.911494 -0.264737
10.915503 -0.356141
10.919501 -0.436819
10.923495 -0.458287
10.927506 -0.426983
10.931496 -0.400302
10.935488 -0.420176
10.939502 -0.468956
10.943494 -0.499362
10.947497 -0.492385
10.951504 -0.469534
10.955493 -0.454659
10.959472 -0.442566
10.963470 -0.414657
10.967494 -0.377153
10.971500 -0.363610
10.975494 -0.390077
10.979474 -0.425323
10.983500 -0.426084
10.987494 -0.393577
10.991494 -0.371392
10.995502 -0.384792
10.999494 -0.405811
11.003499 -0.394710
11.007593 -0.359324
11.011497 -0.346076
11.015496 -0.372757
11.019497 -0.397844
11.023495 -0.372893
11.027888 -0.309163
11.031497 -0.267325
11.035493 -0.281591
11.039495 -0.318193
11.043502 -0.321760
11.047496 -0.285726
11.051494 -0.254928
11.055494 -0.262775
11.059496 -0.291404
11.063505 -0.305936
11.067500 -0.308616
11.071496 -0.334131
11.075496 -0.394095
11.079502 -0.451518
11.083504 -0.463751
11.087504 -0.436152
11.091496 -0.413423
11.095505 -0.420146
11.099497 -0.430922
11.103496 -0.410892
11.107496 -0.370531
11.111496 -0.355653
11.115504 -0.380725
11.119496 -0.396040
11.123504 -0.339270
11.127505 -0.209331
11.131495 -0.069429
11.135497  0.023515
11.139696  0.075171
11.143498  0.133015
11.147496  0.226637
11.151718  0.346225
11.155710  0.472973
11.159490  0.607936
11.163619  0.757544
11.167494  0.899469
11.171484  0.985471
11.175503  0.988800
11.179493  0.933124
11.183502  0.857636
11.187493  0.764826
11.191502  0.626206
11.195494  0.439140
11.199494  0.252147
11.203495  0.116942
11.207494  0.027850
11.211627 -0.068378
11.215506 -0.200049
11.219671 -0.330410
11.223503 -0.406473
11.227503 -0.430511
11.231496 -0.454915
11.235499 -0.509660
11.239498 -0.564641
11.243498 -0.577188
11.247806 -0.558346
11.251502 -0.569708
11.255498 -0.656813
11.259503 -0.806475
11.263495 -0.975946
11.267841 -1.135837
11.271474 -1.247564
11.275493 -1.199918
11.279491 -0.816051
11.283494  0.022280
11.287503  1.229999
11.292219  2.494536
11.295500  3.414262
11.299494  3.705431
11.303494  3.328737
11.307496  2.461375
11.311500  1.374950
11.315494  0.327837
11.319492 -0.492944
11.323494 -1.007356
11.327519 -1.252638
11.331542 -1.335838
11.335522 -1.347099
11.339495 -1.311967
11.343497 -1.225075
11.347495 -1.110087
11.351509 -1.022960
11.355498 -0.995588
11.359497 -0.998819
11.363496 -0.978931
11.367504 -0.922225
11.371496 -0.863602
11.375620 -0.831261
11.379497 -0.807058
11.383495 -0.757180
11.387506 -0.685399
11.391496 -0.629603
11.395496 -0.606093
11.399504 -0.583556
11.403496 -0.527626
11.407496 -0.454321
11.411496 -0.412428
11.415496 -0.411988
11.419552 -0.398692
11.423489 -0.318922
11.427490 -0.192104
11.431506 -0.091367
11.435498 -0.057570
11.439498 -0.058080
11.443504 -0.036754
11.447496  0.015615
11.451496  0.059238
11.455496  0.067610
11.459496  0.068761
11.463504  0.111848
11.467495  0.204403
11.471604  0.302068
11.475476  0.364281
11.479568  0.403795
11.483496  0.465410
11.487482  0.563348
11.491506  0.661255
11.495493  0.720500
11.499495  0.748488
11.503498  0.779444
11.507506  0.818935
11.511498  0.836104
11.515496  0.815274
11.519625  0.789090
11.523503  0.800460
11.527497  0.843786
11.531504  0.868574
11.535666  0.843649
11.539494  0.795749
11.543518  0.770460
11.547713  0.769745
11.551497  0.750178
11.555493  0.681675
11.559498  0.587189
11.563474  0.512918
11.567500  0.470386
11.571483  0.426144
11.575481  0.351353
11.579494  0.262216
11.583472  0.193501
11.587490  0.143444
11.591502  0.071394
11.595495 -0.045850
11.599494 -0.178268
11.603496 -0.279567
11.607501 -0.346243
11.611489 -0.415084
11.615493 -0.502170
11.619496 -0.571455
11.623503 -0.580653
11.627495 -0.542541
11.631493 -0.516219
11.635495 -0.537056
11.639493 -0.577264
11.643502 -0.587753
11.647493 -0.562440
11.651496 -0.539506
11.655493 -0.543636
11.659495 -0.552943
11.663501 -0.535446
11.667495 -0.499550
11.671493 -0.484375
11.675495 -0.502874
11.679493 -0.517881
11.683502 -0.486530
11.687494 -0.416065
11.691495 -0.358034
11.695501 -0.346985
11.699666 -0.362198
11.703501 -0.360944
11.707495 -0.335840
11.711493 -0.318383
11.715495 -0.327838
11.719494 -0.340228
11.723502 -0.322212
11.727493 -0.282604
11.731495 -0.267705
11.735493 -0.302001
11.739496 -0.352368
11.743502 -0.364996
11.747503 -0.327140
11.751498 -0.275386
11.755491 -0.244915
11.759739 -0.227370
11.763493 -0.189037
11.767481 -0.123497
11.771497 -0.068705
11.775488 -0.062334
11.779495 -0.093857
11.783501 -0.121310
11.787495 -0.127119
11.791493 -0.129643
11.795492 -0.140074
11.799500 -0.137881
11.803482 -0.100165
11.807552 -0.037533
11.811502  0.014217
11.815793  0.037815
11.819498  0.056837
11.823623  0.098716
11.827495  0.142809
11.831501  0.132220
11.835495  0.044869
11.839494 -0.069110
11.843495 -0.137481
11.847780 -0.140794
11.851502 -0.116439
11.855503 -0.092719
11.859569 -0.047080
11.863495  0.055684
11.867505  0.203235
11.871540  0.340746
11.875498  0.435599
11.879503  0.512957
11.883489  0.614739
11.887493  0.738523
11.891495  0.836905
11.895501  0.876206
11.899502  0.875431
11.903493  0.873578
11.907495  0.871522
11.911495  0.829643
11.915502  0.724536
11.919501  0.585325
11.923497  0.458391
11.927474  0.349495
11.931496  0.223930
11.935502  0.064552
11.939495 -0.094387
11.943494 -0.207650
11.947489 -0.278521
11.951494 -0.352178
11.955502 -0.449205
11.959501 -0.531888
11.963508 -0.552299
11.967498 -0.517331
11.971504 -0.482881
11.975504 -0.486716
11.979496 -0.512766
11.983496 -0.535212
11.987671 -0.578017
11.991502 -0.701657
11.995494 -0.927982
11.999494 -1.197298
12.003501 -1.403752
12.007494 -1.449175
12.011508 -1.246780
12.015497 -0.703504
12.019565  0.235559
12.023614  1.476411
12.027496  2.714607
12.031496  3.540178
12.035509  3.673346
12.039498  3.134506
12.043496  2.191042
12.047625  1.152166
12.051497  0.220520
12.055495 -0.507927
12.059504 -0.987761
12.063497 -1.215335
12.067503 -1.248419
12.071496 -1.181286
12.075486 -1.078788
12.079498 -0.947668
12.083609 -0.780548
12.087494 -0.610480
12.091505 -0.499689
12.095495 -0.474625
12.099497 -0.494468
12.103496 -0.499049
12.107504 -0.475899
12.111495 -0.460702
12.115497 -0.476033
12.119496 -0.494817
12.123499 -0.476461
12.127503 -0.422339
12.131565 -0.373902
12.135503 -0.357116
12.139578 -0.349238
12.143496 -0.312027
12.147497 -0.244700
12.151576 -0.184412
12.155480 -0.154049
12.159504 -0.129929
12.163505 -0.075955
12.167656  0.002432
12.171505  0.061412
12.175497  0.078267
12.179505  0.086577
12.183495  0.135753
12.187551  0.226397
12.191498  0.308576
12.195498  0.346063
12.199496  0.359978
12.203504  0.394723
12.207505  0.456554
12.211663  0.509529
12.215508  0.529601
12.219498  0.537272
12.223496  0.564483
12.227496  0.606987
12.231491  0.631654
12.235503  0.627727
12.239493  0.627349
12.243495  0.661985
12.247494  0.712843
12.251502  0.727763
12.255502  0.687888
12.259494  0.634758
12.263494  0.617823
12.267494  0.630482
12.271495  0.620691
12.275502  0.562760
12.279494  0.492663
12.283494  0.457883
12.287494  0.450354
12.291494  0.413900
12.295501  0.316536
12.299494  0.192336
12.303494  0.098596
12.307494  0.045437
12.311502 -0.009953
12.315502 -0.099292
12.319495 -0.197456
12.323779 -0.255534
12.327489 -0.263520
12.331495 -0.256791
12.335554 -0.263543
12.339494 -0.269323
12.343489 -0.245325
12.347489 -0.199336
12.351576 -0.175200
12.355490 -0.192937
12.359542 -0.212375
12.363722 -0.181465
12.367497 -0.105410
12.371482 -0.036178
12.375498  0.001246
12.379498  0.039555
12.383490  0.116362
12.387498  0.213094
12.391609  0.269278
12.395498  0.258530
12.399589  0.231961
12.403539  0.266978
12.407516  0.375913
12.411686  0.490378
12.415550  0.548199
12.419610  0.571855
12.423499  0.634720
12.427492  0.760770
12.431503  0.888126
12.435497  0.942834
12.439649  0.929615
12.443589  0.924883
12.447667  0.984265
12.451599  1.081846
12.455525  1.146484
12.479525  1.139875
12.481691  1.086999
12.483681  1.038239
12.486003  1.012047
12.488237  0.974266
12.491495  0.874186
12.495494  0.703719
12.499668  0.512713
12.503494  0.356878
12.507503  0.239421
12.511492  0.118547
12.515504 -0.029768
12.519509 -0.174272
12.523498 -0.265167
12.527505 -0.298235
12.531497 -0.322115
12.535495 -0.378115
12.539499 -0.451848
12.543496 -0.500047
12.547505 -0.513596
12.551495 -0.529902
12.555497 -0.579365
12.559498 -0.641696
12.563757 -0.672329
12.567495 -0.661242
12.571493 -0.644003
12.575495 -0.652542
12.579495 -0.675377
12.583497 -0.682319
12.587501 -0.677200
12.591487 -0.700792
12.595495 -0.774637
12.599493 -0.862430
12.603497 -0.906724
12.607510 -0.895112
12.611497 -0.867458
12.615504 -0.856320
12.619504 -0.843067
12.623489 -0.786540
12.627493 -0.679841
12.631654 -0.557967
12.635496 -0.450146
12.639502 -0.341019
12.643500 -0.191032
12.647500  0.006471
12.651496  0.202685
12.655499  0.339091
12.659468  0.406177
12.663501  0.439270
12.667478  0.460629
12.671486  0.448259
12.675493  0.371273
12.679500  0.238600
12.683500  0.093400
12.687560 -0.031488
12.691497 -0.130375
12.695580 -0.200629
12.699560 -0.229020
12.703498 -0.215540
12.707537 -0.192179
12.711535 -0.194927
12.715511 -0.221053
12.719653 -0.231198
12.723623 -0.194349
12.727547 -0.119741
12.731533 -0.041523
12.735502  0.021041
12.739498  0.075326
12.743776  0.117899
12.747697  0.097499
12.751500 -0.055237
12.755494 -0.345675
12.759541 -0.671906
12.763504 -0.875327
12.767474 -0.839161
12.771470 -0.553034
12.775622 -0.111916
12.779551 -0.365428
12.783487  1.056019
12.787495  2.142503
12.791501  2.614539
12.795495  2.367306
12.799493  1.548657
12.803495  0.469464
12.807494 -0.586422
12.811502 -1.470655
12.815493 -2.137269
12.819495 -2.571814
12.823500 -2.781485
12.827494 -2.822025
12.831502 -2.784951
12.835494 -2.738659
12.839494 -2.691565
12.843496 -2.621700
12.847494 -2.531590
12.851502 -2.456103
12.855494 -2.416820
12.859494 -2.391193
12.863494 -2.343758
12.867494 -2.276404
12.871679 -2.225304
12.875494 -2.207342
12.879494 -2.191239
12.883494 -2.135708
12.887494 -2.044631
12.891504 -1.964578
12.895494 -1.925657
12.899495 -1.902421
12.903494 -1.847349
12.907494 -1.753762
12.911502 -1.663952
12.915494 -1.611342
12.919494 -1.576493
12.923495 -1.517203
12.927502 -1.429144
12.931494 -1.352505
12.935494 -1.316154
12.939494 -1.296747
12.943494 -1.249382
12.947502 -1.168166
12.951494 -1.093850
12.955494 -1.057209
12.959494 -1.035943
12.963493 -0.986242
12.967498 -0.903142
12.971498 -0.821074
12.975754 -0.756557
12.979499 -0.681620
12.983534 -0.567266
12.987503 -0.433243
12.991494 -0.334854
12.995495 -0.302240
12.999493 -0.306494
13.003498 -0.293527
13.007499 -0.243193
13.011705 -0.182987
13.015502 -0.146396
13.019494 -0.133074
13.023494 -0.119802
13.027508 -0.102057
13.031495 -0.104020
13.035496 -0.140683
13.039497 -0.190319
13.043495 -0.224590
13.047500 -0.256017
13.051476 -0.329792
13.055590 -0.459933
13.059484 -0.590901
13.063505 -0.645990
13.067500 -0.614827
13.071496 -0.569132
13.075502 -0.580066
13.079478 -0.642481
13.083500 -0.698899
13.087484 -0.716362
13.091499 -0.712429
13.095496 -0.714716
13.099486 -0.723694
13.103743 -0.726571
13.107791 -0.731835
13.111498 -0.767219
13.115491 -0.839139
13.119493 -0.911295
13.123492 -0.941262
13.127503 -0.933746
13.131493 -0.936354
13.135702 -0.977307
13.139502 -1.027404
13.143502 -1.038153
13.147503 -1.004534
13.151595 -0.969246
13.155493 -0.965210
13.159495 -0.973852
13.163501 -0.953219
13.167495 -0.896275
13.171502 -0.840583
13.175502 -0.817199
13.179494 -0.809991
13.183502 -0.782305
13.187502 -0.732991
13.191494 -0.701292
13.195495 -0.711729
13.199492 -0.735807
13.203494 -0.726161
13.207506 -0.678626
13.211498 -0.637707
13.215496 -0.636628
13.219503 -0.653029
13.223497 -0.641694
13.227496 -0.600083
13.231503 -0.576470
13.235565 -0.606413
13.239496 -0.659238
13.243508 -0.667869
13.247503 -0.607798
13.251501 -0.521732
13.255500 -0.458554
13.259503 -0.414808
13.263642 -0.358790
13.267500 -0.294512
13.271495 -0.268503
13.275494 -0.309260
13.279494 -0.385124
13.283502 -0.439309
13.287494 -0.455532
13.291494 -0.468637
13.295494 -0.509365
13.299494 -0.559601
13.303503 -0.577500
13.307497 -0.553244
13.311562 -0.515449
13.315502 -0.484296
13.319482 -0.445455
13.323483 -0.382902
13.327495 -0.319600
13.331496 -0.303784
13.335504 -0.352444
13.339602 -0.423109
13.343502 -0.454596
13.347494 -0.430723
13.351476 -0.390940
13.355503 -0.379163
13.359491 -0.396994
13.363839 -0.413974
13.367490 -0.410523
13.371475 -0.396143
13.375489 -0.387843
13.379472 -0.382868
13.383471 -0.362722
13.387483 -0.322786
13.391498 -0.281435
13.395487 -0.248837
13.399701 -0.201341
13.403498 -0.107704
13.407496  0.022679
13.411498  0.140209
13.415496  0.213063
13.419504  0.267559
13.423496  0.353143
13.427666  0.477507
13.431511  0.598651
13.435507  0.679382
13.439498  0.725147
13.443587  0.758256
13.447481  0.774507
13.451592  0.745643
13.455497  0.661685
13.459498  0.552576
13.463497  0.455574
13.467490  0.369805
13.471498  0.262240
13.475489  0.121233
13.479497 -0.014750
13.483478 -0.096474
13.487509 -0.123832
13.491599 -0.148380
13.495496 -0.212820
13.499497 -0.302789
13.503496 -0.369746
13.507496 -0.391288
13.511503 -0.391724
13.515489 -0.406253
13.519484 -0.446472
13.523795 -0.511922
13.527495 -0.619104
13.531488 -0.792733
13.535503 -1.015120
13.539502 -1.187933
13.543495 -1.156771
13.547494 -0.786842
13.551494 -0.031558
13.555502  1.038855
13.559494  2.232130
13.563494  3.250416
13.567494  3.776089
13.571535  3.633811
13.575504  2.914117
13.579501  1.923389
13.583494  0.983391
13.587707  0.259789
13.591502 -0.245037
13.595495 -0.581180
13.599494 -0.767121
13.603494 -0.804460
13.607495 -0.733042
13.611502 -0.633387
13.615494 -0.567257
13.619494 -0.533043
13.623494 -0.492628
13.627495 -0.431711
13.631503 -0.376411
13.635496 -0.352987
13.639494 -0.349690
13.643504 -0.328957
13.647506 -0.269919
13.651503 -0.186359
13.655623 -0.102414
13.659496 -0.023442
13.663482  0.058905
13.667474  0.140029
13.671686  0.199211
13.675497  0.230279
13.679476  0.261264
13.683488  0.324444
13.687496  0.408799
13.691487  0.463515
13.695492  0.457684
13.699492  0.419949
13.703500  0.403488
13.707492  0.421253
13.711492  0.435833
13.715492  0.415093
13.719494  0.378032
13.723500  0.369314
13.727493  0.398113
13.731474  0.426195
13.735490  0.422186
13.739493  0.406333
13.743501  0.422854
13.747635  0.479405
13.751494  0.539305
13.755645  0.576078
13.759640  0.611869
13.763509  0.685269
13.767498  0.792886
13.771496  0.884822
13.775496  0.922125
13.779504  0.922116
13.783498  0.932435
13.787496  0.968193
13.791497  0.994655
13.795507  0.976239
13.799505  0.924754
13.803495  0.882580
13.807497  0.865472
13.811495  0.843578
13.815497  0.784482
13.819503  0.696145
13.823497  0.610920
13.827496  0.536925
13.831498  0.447533
13.835492  0.324586
13.839502  0.193622
13.843494  0.096860
13.847502  0.037933
13.851555 -0.021683
13.855494 -0.103740
13.859504 -0.172774
13.863504 -0.176467
13.867495 -0.116945
13.871482 -0.054734
13.875501 -0.036804
13.879549 -0.042857
13.883522 -0.018112
13.887501  0.052513
13.891789  0.123349
13.895496  0.142720
13.899496  0.110031
13.903496  0.064118
13.907496  0.026230
13.911504 -0.021813
13.915496 -0.098629
13.919670 -0.183737
13.923493 -0.235792
13.927495 -0.242923
13.931502 -0.232740
13.935495 -0.226515
13.939493 -0.205420
13.943489 -0.147701
13.947494 -0.094914
13.951485 -0.144389
13.955476 -0.338018
13.959496 -0.562754
13.963494 -0.619261
13.967496 -0.426619
13.971492 -0.113568
13.975498  0.128901
13.979476  0.232942
13.983549  0.258799
13.987495  0.271859
13.991496  0.271691
13.995502  0.232608
13.999494  0.166884
14.003494  0.117464
14.007502  0.100478
14.011494  0.086291
14.015494  0.045718
14.019494 -0.006610
14.023494 -0.033458
14.027682 -0.029509
14.031496 -0.031525
14.035668 -0.068174
14.039495 -0.117674
14.043494 -0.133686
14.047626 -0.106951
14.051507 -0.079493
14.055493 -0.091687
14.059495 -0.132256
14.063602 -0.156495
14.067492 -0.146777
14.071506 -0.133343
14.075498 -0.147718
14.079496 -0.175126
14.083504 -0.175328
14.087498 -0.142664
14.091496 -0.118285
14.095496 -0.136463
14.099495 -0.178647
14.103506 -0.195654
14.107497 -0.167627
14.111496 -0.125205
14.115497 -0.107418
14.119495 -0.113889
14.123504 -0.114712
14.127496 -0.100123
14.131497 -0.097218
14.135495 -0.130425
14.139497 -0.182675
14.143504 -0.213124
14.147497 -0.208168
14.151508 -0.194930
14.155497 -0.197069
14.159565 -0.193053
14.163622 -0.136352
14.167643 -0.014614
14.171489  0.129009
14.175509  0.242282
14.179499  0.319533
14.183496  0.396949
14.187509  0.500493
14.191499  0.618307
14.195496  0.727113
14.199509  0.825036
14.203498  0.920095
14.207496  0.996366
14.211504  1.017442
14.215496  0.971806
14.219504  0.897839
14.223506  0.845204
14.227490  0.815124
14.231496  0.757258
14.235504  0.630788
14.239497  0.454266
14.243496  0.284396
14.247710  0.155741
14.251503  0.058019
14.255506 -0.029297
14.259506 -0.101704
14.263480 -0.143101
14.267504 -0.161805
14.271626 -0.188935
14.275502 -0.234366
14.279482 -0.263856
14.283646 -0.241343
14.287487 -0.188432
14.291500 -0.179563
14.295493 -0.271579
14.299491 -0.450989
14.303493 -0.658327
14.307491 -0.848005
14.311500 -0.994173
14.315492 -1.028522
14.319495 -0.805087
14.323491 -0.177423
14.327494  0.859015
14.331500  2.093931
14.335493  3.173064
14.339491  3.765181
14.343494  3.712802
14.347492  3.078991
14.351474  2.087101
14.355476  1.018209
14.359535  0.117663
14.363552 -0.477934
14.367501 -0.771226
14.371497 -0.861603
14.375496 -0.855576
14.379763 -0.806460
14.383496 -0.724906
14.387494 -0.623995
14.391494 -0.535698
14.395501 -0.482909
14.399494 -0.452119
14.403494 -0.411208
14.407502 -0.353109
14.411686 -0.305819
14.415495 -0.291866
14.419497 -0.290868
14.423500 -0.259843
14.427488 -0.188629
14.431509 -0.115510
14.435498 -0.078812
14.439503 -0.068354
14.443504 -0.042678
14.447496  0.012652
14.451496  0.066408
14.455496  0.086202
14.459504  0.081757
14.463504  0.087276
14.467496  0.111480
14.471489  0.128344
14.475499  0.119934
14.479491  0.108247
14.483491  0.133170
14.487472  0.208940
14.491582  0.311535
14.495491  0.406661
14.499496  0.484646
14.503506  0.560196
14.507500  0.637088
14.511496  0.690484
14.515504  0.698276
14.519496  0.677451
14.523496  0.669215
14.527497  0.689563
14.531496  0.711275
14.535503  0.700304
14.539496  0.657656
14.543496  0.615705
14.547496  0.602274
14.551504  0.620709
14.555496  0.661376
14.559723  0.720357
14.563482  0.799051
14.567501  0.884615
14.571469  0.942800
14.575499  0.948891
14.579476  0.922444
14.583494  0.906732
14.587503  0.909574
14.591494  0.887644
14.595502  0.800186
14.599501  0.661480
14.603495  0.524413
14.607494  0.419917
14.611592  0.328958
14.615503  0.215847
14.619489  0.075982
14.623493 -0.062346
14.627489 -0.180301
14.631501 -0.292215
14.635495 -0.415320
14.639494 -0.533273
14.643495 -0.613969
14.647493 -0.658418
14.651502 -0.704640
14.655494 -0.773948
14.659673 -0.835655
14.663508 -0.845342
14.667499 -0.806170
14.671496 -0.769034
14.675499 -0.772108
14.679498 -0.798183
14.683504 -0.801898
14.687496 -0.770139
14.691496 -0.737869
14.695497 -0.740391
14.699496 -0.766844
14.703504 -0.776518
14.707496 -0.753239
14.711496 -0.722729
14.715504 -0.712024
14.719887 -0.710923
14.723496 -0.690729
14.727496 -0.653295
14.731667 -0.638781
14.735504 -0.675816
14.739670 -0.738468
14.743495 -0.770139
14.747494 -0.747508
14.751496 -0.704403
14.755504 -0.686761
14.759494 -0.696668
14.763494 -0.693073
14.767566 -0.640055
14.771504 -0.538144
14.775504 -0.411180
14.779551 -0.226118
14.783475 -0.134969
14.787496 -0.035687
14.791488  0.044533
14.795509  0.069974
14.799498  0.044673
14.803503  0.005978
14.807499 -0.028006
14.811504 -0.080109
14.815497 -0.173974
14.819495 -0.289230
14.823497 -0.376402
14.827495 -0.413430
14.831504 -0.427715
14.835649 -0.454846
14.839496 -0.492148
14.843496 -0.508921
14.847496 -0.492920
14.851537 -0.466130
14.855467 -0.451825
14.859533 -0.442280
14.863502 -0.413757
14.867502 -0.367505
14.871498 -0.334918
14.875496 -0.335611
14.879503 -0.347909
14.883497 -0.334498
14.887494 -0.290015
14.891494 -0.250526
14.895494 -0.252643
14.899501 -0.292145
14.903671 -0.335224
14.907494 -0.365759
14.911502 -0.399708
14.915499 -0.444157
14.919575 -0.463140
14.923498 -0.409577
14.927560 -0.287791
14.931963 -0.160803
14.935502 -0.086283
14.939488 -0.057251
14.943495 -0.017876
14.947502  0.068386
14.951494  0.182771
14.955494  0.285055
14.959494  0.363862
14.963507  0.435436
14.967498  0.500704
14.971503  0.529490
14.975508  0.498881
14.979499  0.430817
14.983497  0.370237
14.987499  0.328609
14.991509  0.269598
14.995499  0.158652
14.999496  0.011949
15.003705 -0.120497
15.007496 -0.214911
15.011496 -0.296558
15.015496 -0.396283
15.019496 -0.501990
15.023760 -0.572505
15.027496 -0.593960
15.031504 -0.598897
15.035497 -0.621925
15.039496 -0.656537
15.043496 -0.675084
15.047496 -0.683791
15.051504 -0.734536
15.055496 -0.871503
15.059666 -1.077093
15.063502 -1.281573
15.067495 -1.412448
15.071565 -1.409478
15.075506 -1.191138
15.079502 -0.643087
15.083688  0.303705
15.087494  1.542282
15.091489  2.746630
15.095622  3.516979
15.099497  3.626820
15.103502  3.146012
15.107494  2.327331
15.111502  1.406315
15.115493  0.524962
15.119497 -0.220225
15.123493 -0.749720
15.127494 -1.039088
15.131507 -1.141974
15.135491 -1.143128
15.139502 -1.092116
15.143495 -0.993830
15.147701 -0.855323
15.151496 -0.717949
15.155602 -0.627529
15.159474 -0.584036
15.163472 -0.545696
15.167500 -0.485567
15.171504 -0.421838
15.175552 -0.381919
15.179496 -0.356244
15.183505 -0.310872
15.187496 -0.240276
15.191496 -0.182074
15.195509 -0.170394
15.199498 -0.191859
15.203496 -0.203818
15.207495 -0.188950
15.211504 -0.172724
15.215497 -0.181195
15.219495 -0.197476
15.223497 -0.178464
15.227495 -0.111897
15.231505 -0.037364
15.235495 -0.001915
15.239497 -0.008406
15.243496 -0.022639
15.247497 -0.023383
15.251504 -0.023658
15.255505 -0.037232
15.259495 -0.043260
15.263497 -0.004652
15.267504  0.081041
15.271497  0.169158
15.275496  0.217460
15.279504  0.236477
15.283662  0.272297
15.287505  0.342733
15.291495  0.413053
15.295497  0.444067
15.299496  0.446278
15.303497  0.466081
15.307503  0.523973
15.311497  0.589224
15.315497  0.622872
15.319498  0.627151
15.323496  0.633989
15.327505  0.652776
15.331495  0.652831
15.335497  0.605031
15.339495  0.524859
15.343497  0.457324
15.347503  0.424283
15.351499  0.406021
15.355716  0.378991
15.359498  0.351876
15.363497  0.346518
15.367503  0.353149
15.371501  0.330655
15.375478  0.260649
15.379727  0.181869
15.383484  0.148139
15.387488  0.159029
15.391488  0.156638
15.395494  0.094352
15.399502 -0.009784
15.403494 -0.098659
15.407494 -0.144355
15.411494 -0.172900
15.415494 -0.218203
15.419502 -0.271520
15.423494 -0.297621
15.427503 -0.293230
15.431494 -0.301389
15.435496 -0.357667
15.439493 -0.440520
15.443507 -0.493220
15.447497 -0.488592
15.451505 -0.452931
15.455507 -0.422321
15.459547 -0.394397
15.463494 -0.341392
15.467503 -0.261932
15.471473 -0.193569
15.475540 -0.166085
15.479716 -0.162215
15.483502 -0.142400
15.487497 -0.100363
15.491497 -0.073860
15.495496 -0.094894
15.499505 -0.145251
15.503496 -0.177489
15.507496 -0.172475
15.511496 -0.155358
15.515496 -0.151256
15.519504 -0.145412
15.523496 -0.106250
15.527495 -0.040728
15.531497 -0.001663
15.535496 -0.029771
15.539505 -0.103889
15.543495 -0.164749
15.547497 -0.181574
15.551497 -0.177617
15.555497 -0.187739
15.559503 -0.208598
15.563480 -0.206882
15.567487 -0.169589
15.571486 -0.124042
15.575502 -0.099974
15.579486 -0.088345
15.583500 -0.057570
15.587505 -0.006783
15.591494  0.020020
15.595495 -0.014772
15.599493 -0.090006
15.603495 -0.144997
15.607501 -0.151086
15.611495 -0.143820
15.615494 -0.173568
15.619495 -0.240692
15.623494 -0.300513
15.627503 -0.323858
15.631476 -0.321968
15.635474 -0.302913
15.639501 -0.236141
15.643503 -0.095316
15.647769  0.077693
15.651502  0.195347
15.655495  0.218014
15.659495  0.198406
15.663497  0.225655
15.667504  0.338554
15.671504  0.499759
15.675506  0.649652
15.679504  0.770050
15.683506  0.880111
15.687490  0.980154
15.691505  1.031335
15.695667  1.004262
15.699498  0.926372
15.703496  0.856283
15.707496  0.814466
15.711504  0.760345
15.715496  0.645973
15.719496  0.478350
15.723496  0.312629
15.727496  0.188665
15.731783  0.094388
15.735524 -0.001458
15.739476 -0.098091
15.743504 -0.163707
15.747712 -0.183871
15.751619 -0.187204
15.755500 -0.209898
15.759496 -0.246279
15.763670 -0.257007
15.767470 -0.229471
15.771500 -0.209545
15.775503 -0.258229
15.779473 -0.386789
15.783474 -0.552594
15.787472 -0.711890
15.791502 -0.843716
15.795673 -0.901896
15.799494 -0.765724
15.803494 -0.284424
15.807494  0.595738
15.811494  1.734427
15.815759  2.824422
15.819496  3.533932
15.823493  3.666443
15.827495  3.232306
15.831662  2.403404
15.835501  1.413150
15.839501  0.475081
15.843495 -0.266210
15.847493 -0.762778
15.851503 -1.052148
15.855494 -1.198796
15.859501 -1.237821
15.863489 -1.177924
15.867688 -1.046480
15.871500 -0.905147
15.875495 -0.807692
15.879497 -0.753340
15.883503 -0.699758
15.887491 -0.622723
15.891638 -0.545347
15.895502 -0.499776
15.899494 -0.477362
15.903502 -0.438964
15.907670 -0.370779
15.911494 -0.305454
15.915760 -0.276777
15.919502 -0.270397
15.923496 -0.240048
15.927492 -0.168583
15.931502 -0.091323
15.935495 -0.049261
15.939495 -0.034940
15.943499 -0.006200
15.947499  0.051813
15.951496  0.106058
15.955494  0.125895
15.959486  0.131565
15.963500  0.171221
15.967474  0.256435
15.971501  0.343128
15.975497  0.384341
15.979504  0.386142
15.983497  0.394153
15.987495  0.430871
15.991497  0.468236
15.995504  0.470543
15.999504  0.447476
16.003503  0.443541
16.007497  0.478622
16.011504  0.522334
16.015499  0.536476
16.019497  0.525915
16.023496  0.528946
16.027503  0.561695
16.031498  0.593148
16.035488  0.586630
16.039494  0.552804
16.043502  0.540459
16.047495  0.575008
16.051584  0.625602
16.055504  0.642786
16.059501  0.617704
16.063495  0.589091
16.067503  0.590493
16.071467  0.605986
16.075472  0.594536
16.079484  0.548704
16.083821  0.500005
16.087496  0.463634
16.091494  0.409078
16.095503  0.302444
16.099504  0.159482
16.103496  0.033572
16.107496 -0.045902
16.111508 -0.102614
16.115498 -0.173164
16.119504 -0.254007
16.123504 -0.308475
16.127496 -0.323290
16.131496 -0.333299
16.135496 -0.376872
16.139496 -0.442840
16.143504 -0.483383
16.147669 -0.476551
16.151503 -0.454574
16.155496 -0.460763
16.159503 -0.493168
16.163497 -0.510458
16.167503 -0.490878
16.171497 -0.462994
16.175669 -0.466360
16.179497 -0.496890
16.183496 -0.513162
16.187505 -0.494689
16.191495 -0.469856
16.195497 -0.473843
16.199504 -0.496240
16.203508 -0.493875
16.207495 -0.452456
16.211497 -0.410657
16.215495 -0.410942
16.219497 -0.442364
16.223934 -0.454291
16.227633 -0.424121
16.231494 -0.385776
16.235503 -0.379982
16.239493 -0.398199
16.243495 -0.399656
16.247493 -0.374098
16.251497 -0.358395
16.255502 -0.383526
16.259495 -0.427168
16.263495 -0.439691
16.267497 -0.410661
16.271594 -0.384819
16.275492 -0.399894
16.279493 -0.425357
16.283581 -0.391268
16.287474 -0.279581
16.291495 -0.156743
16.295502 -0.100350
16.299494 -0.116294
16.303494 -0.149892
16.308119 -0.164330
16.311504 -0.179464
16.315496 -0.228450
16.319497 -0.299244
16.323497 -0.341539
16.327496 -0.328140
16.331504 -0.288611
16.335504 -0.273614
16.339496 -0.300645
16.343505 -0.350577
16.347498 -0.406349
16.351477 -0.465862
16.355493 -0.509553
16.359496 -0.484253
16.363732 -0.348612
16.367552 -0.130114
16.371498  0.084792
16.375470  0.225071
16.379473  0.293494
16.383496  0.346440
16.387489  0.423104
16.391668  0.509873
16.395499  0.576853
16.399492  0.628749
16.403621  0.696981
16.407500  0.785396
16.411494  0.849256
16.415502  0.841815
16.419494  0.768095
16.423494  0.673571
16.427494  0.584624
16.431494  0.482404
16.435504  0.342070
16.439494  0.179324
16.443502  0.039303
16.447502 -0.055880
16.451495 -0.128537
16.455494 -0.207642
16.459494 -0.285776
16.463509 -0.331482
16.467498 -0.339230
16.471496 -0.344178
16.475509 -0.376520
16.479498 -0.417312
16.483496 -0.422292
16.487496 -0.390710
16.491496 -0.392870
16.495504 -0.514017
16.499620 -0.764197
16.503508 -1.045288
16.507493 -1.220899
16.511494 -1.222091
16.515484 -1.053912
16.519500 -0.692283
16.523485 -0.040845
16.527493  0.953294
16.531486  2.153543
16.535500  3.232753
16.539485  3.836804
16.543493  3.781922
16.547485  3.135127
16.551493  2.138696
16.555498  1.070743
16.559493  0.148072
16.563578 -0.509979
16.567495 -0.886585
16.571493 -1.044858
16.575569 -1.072323
16.579495 -1.027115
16.583494 -0.933007
16.587495 -0.814298
16.591624 -0.711762
16.595716 -0.653325
16.599655 -0.623786
16.603494 -0.584865
16.607495 -0.526805
16.611501 -0.483821
16.615495 -0.488822
16.619502 -0.523733
16.623543 -0.532440
16.627502 -0.482944
16.631477 -0.399770
16.635512 -0.328726
16.639500 -0.285257
16.643500 -0.251815
16.647474 -0.217243
16.651546 -0.197270
16.655496 -0.207215
16.659472 -0.227732
16.663500 -0.218010
16.667495 -0.163740
16.671500 -0.093992
16.675618 -0.042628
16.679642 -0.005175
16.683493  0.050049
16.687502  0.127859
16.691495  0.183843
16.695493  0.172857
16.699783  0.107844
16.703498  0.048297
16.707502  0.033099
16.711509  0.045246
16.715499  0.048039
16.719498  0.038160
16.723497  0.044469
16.727771  0.079387
16.731497  0.114956
16.735500  0.118843
16.739498  0.099967
16.743570  0.097973
16.747498  0.127870
16.751496  0.154477
16.755496  0.132390
16.759496  0.060842
16.763505 -0.013675
16.767503 -0.043894
16.771496 -0.018726
16.775496  0.040214
16.779926 -0.129176
16.783496 -0.086010
16.787496 -0.068548
16.791496 -0.103385
16.795504 -0.197845
16.799496 -0.320866
16.803496 -0.423301
16.807506 -0.486411
16.811498 -0.539796
16.815503 -0.622298
16.819640 -0.733616
16.823496 -0.837633
16.827504 -0.909030
16.831498 -0.958640
16.835504 -1.007180
16.839500 -1.049859
16.843497 -1.064502
16.847503 -1.052130
16.851505 -1.050596
16.855495 -1.095716
16.859497 -1.176864
16.863496 -1.246939
16.867499 -1.275753
16.871751 -1.277614
16.875502 -1.281121
16.879779 -1.287475
16.883502 -1.274547
16.887496 -1.236910
16.891496 -1.202577
16.895496 -1.201113
16.899500 -1.225640
16.903500 -1.241200
16.907500 -1.229799
16.911484 -1.211265
16.915607 -1.209572
16.919602 -1.208645
16.923502 -1.161313
16.927495 -1.047141
16.931496 -0.906808
16.935495 -0.806554
16.939494 -0.774534
16.943494 -0.784530
16.947502 -0.797450
16.951476 -0.799856
16.955494 -0.795532
16.959494 -0.777388
16.963483 -0.730886
16.967761 -0.665712
16.971497 -0.620585
16.975564 -0.619122
16.979553 -0.632626
16.983495 -0.609869
16.987493 -0.542590
16.991496 -0.480250
16.995504 -0.473432
16.999495 -0.516576
17.003493 -0.558584
17.007495 -0.565356
17.011493 -0.556463
17.015503 -0.572618
17.019502 -0.618969
17.023496 -0.658967
17.027490 -0.664243
17.031495 -0.651435
17.035501 -0.657510
17.039495 -0.689686
17.043494 -0.718903
17.047497 -0.722577
17.051493 -0.714239
17.055502 -0.720885
17.059493 -0.744195
17.063502 -0.760215
17.067494 -0.753369
17.071653 -0.735025
17.075499 -0.723354
17.079506 -0.714009
17.083496 -0.683078
17.087497 -0.620475
17.091619 -0.546297
17.095509 -0.483045
17.099498 -0.422044
17.103546 -0.335501
17.107665 -0.220144
17.111496 -0.109469
17.115496 -0.033590
17.119496  0.020408
17.123504  0.093008
17.127604  0.200444
17.131492  0.313005
17.135503  0.389547
17.139501  0.422652
17.143667  0.437434
17.147502  0.448677
17.151495  0.436138
17.155493  0.373144
17.159495  0.269501
17.163491  0.166867
17.167502  0.089371
17.171669  0.015932
17.175494 -0.087521
17.179494 -0.218533
17.183496 -0.337494
17.187502 -0.416538
17.191494 -0.472267
17.195496 -0.539279
17.199494 -0.622844
17.203494 -0.696701
17.207504 -0.744778
17.211495 -0.782332
17.215502 -0.828128
17.219495 -0.875394
17.223496 -0.907896
17.227502 -0.936540
17.231500 -0.999780
17.235496 -1.114740
17.239640 -1.223404
17.243502 -1.188307
17.247494 -0.849491
17.251680 -0.109095
17.255496  0.997860
17.259500  2.274190
17.263496  3.393088
17.267500  4.009463
17.271547  3.925266
17.275554  3.205301
17.279475  2.137787
17.283472  1.061093
17.287499  0.196639
17.291867 -0.397299
17.295493 -0.759147
17.299495 -0.940345
17.303493 -0.981226
17.307502 -0.934547
17.311493 -0.870567
17.315669 -0.838560
17.319509 -0.832374
17.323499 -0.810706
17.327504 -0.753215
17.331559 -0.685768
17.335497 -0.646124
17.339515 -0.636490
17.343499 -0.624340
17.347496 -0.587148
17.351496 -0.539468
17.355506 -0.508306
17.359498 -0.493265
17.363496 -0.467397
17.367496 -0.417738
17.371498 -0.367959
17.375504 -0.348620
17.379496 -0.353549
17.383496 -0.343782
17.387496 -0.296987
17.391496 -0.235735
17.395503 -0.195379
17.399496 -0.175208
17.403496 -0.139721
17.407496 -0.068091
17.411496  0.015987
17.415505  0.075023
17.419506  0.107604
17.423498  0.149853
17.427626  0.227368
17.431504  0.322733
17.435509  0.400018
17.439504  0.450906
17.443490  0.500068
17.447498  0.564960
17.451498  0.628727
17.455505  0.665302
17.459495  0.680876
17.463497  0.711771
17.467494  0.779608
17.471506  0.864652
17.475498  0.933339
17.479506  0.980610
17.483702  1.026189
17.487618  1.070939
17.491497  1.082679
17.495503  1.043696
17.499525  0.997069
17.503498  1.014109
17.507673  1.110937
17.511497  1.223106
17.515498  1.274837
17.519493  1.254564
17.523653  1.206723
17.527498  1.162542
17.531504  1.103717
17.535495  0.999395
17.539599  0.858836
17.543498  0.726863
17.547496  0.631548
17.551498  0.557975
17.555500  0.482648
17.559502  0.416915
17.563584  0.392997
17.567545  0.409763
17.571500  0.419091
17.575491  0.377626
17.579470  0.296450
17.583506  0.225896
17.587597  0.196867
17.591494  0.189643
17.595509  0.164974
17.599499  0.115684
17.603496  0.071241
17.607496  0.051843
17.611504  0.038297
17.615496 -0.000239
17.619496 -0.061284
17.623506 -0.111014
17.627498 -0.129910
17.631695 -0.137795
17.635504 -0.163824
17.639496 -0.202840
17.643496 -0.218596
17.647496 -0.191240
17.651497 -0.144975
17.655498 -0.117359
17.659500 -0.111488
17.663488 -0.096763
17.667494 -0.057331
17.671509 -0.020612
17.675507 -0.023850
17.679496 -0.062184
17.683669 -0.090548
17.687494 -0.079303
17.691494 -0.049264
17.695502 -0.040920
17.699502 -0.062041
17.703494 -0.083185
17.707502 -0.081758
17.711494 -0.072137
17.715494 -0.082523
17.719494 -0.111152
17.723494 -0.123883
17.727508 -0.100593
17.731499 -0.067253
17.735504 -0.066160
17.739504 -0.102312
17.743496 -0.138181
17.747496 -0.142640
17.751497 -0.127754
17.755496 -0.127358
17.759504 -0.150802
17.763496 -0.176025
17.767496 -0.187971
17.771496 -0.203763
17.775496 -0.246800
17.779504 -0.306788
17.783496 -0.344828
17.787496 -0.340276
17.791496 -0.316894
17.795497 -0.312487
17.799504 -0.332003
17.803496 -0.346753
17.807496 -0.339377
17.811498 -0.330502
17.815496 -0.348802
17.819504 -0.386964
17.823496 -0.408343
17.827497 -0.398087
17.831496 -0.387862
17.835496 -0.416969
17.839509 -0.477149
17.843517 -0.511959
17.847551 -0.474836
17.851498 -0.376369
17.855764 -0.263981
17.859492 -0.163364
17.863500 -0.059003
17.867620  0.067249
17.871474  0.201616
17.875500  0.317469
17.879494  0.416131
17.883633  0.525809
17.887493  0.656423
17.891480  0.773811
17.895501  0.832975
17.899690  0.829350
17.903500  0.800097
17.907495  0.774617
17.911490  0.742389
17.915499  0.677013
17.919504  0.576087
17.923487  0.462856
17.927495  0.353071
17.931501  0.234274
17.935495  0.087050
17.939623 -0.078250
17.943503 -0.222507
17.947494 -0.322061
17.951502 -0.397694
17.955494 -0.485369
17.959502 -0.586246
17.963494 -0.665040
17.967494 -0.698842
17.971494 -0.708957
17.975494 -0.736173
17.979502 -0.799276
17.983584 -0.893325
17.987494 -1.021018
17.991502 -1.201874
17.995494 -1.434789
17.999494 -1.652193
18.003496 -1.719985
18.007506 -1.492607
18.011498 -0.882506
18.015496  0.094848
18.019668  1.298354
18.023503  2.455763
18.027495  3.220566
18.031493  3.326023
18.035495  2.749300
18.039493  1.733201
18.043509  0.632089
18.047498 -0.285546
18.051496 -0.926060
18.055508 -1.320536
18.059498 -1.525682
18.063504 -1.579407
18.067499 -1.523792
18.071496 -1.425519
18.075504 -1.346398
18.079504 -1.299018
18.083504 -1.249542
18.087504 -1.168968
18.091496 -1.070345
18.095508 -0.988830
18.099498 -0.936644
18.103496 -0.894462
18.107496 -0.846209
18.111504 -0.803675
18.115665 -0.785047
18.119630 -0.779861
18.123502 -0.754861
18.127506 -0.696930
18.131667 -0.633237
18.135494 -0.597558
18.139494 -0.585399
18.143502 -0.557824
18.147700 -0.491839
18.151498 -0.412403
18.155524 -0.360039
18.159500 -0.334253
18.163501 -0.291559
18.167469 -0.202405
18.171571 -0.090793
18.175791 -0.007704
18.179496  0.025158
18.183496  0.031642
18.187495  0.041842
18.191478  0.053935
18.195476  0.048370
18.199607  0.029868
18.203481  0.032425
18.207476  0.075677
18.211480  0.133938
18.215476  0.166820
18.219480  0.175055
18.223476  0.204581
18.227504  0.289027
18.231499  0.405757
18.235763  0.504016
18.239549  0.568529
18.243500  0.635882
18.247503  0.741688
18.251502  0.865971
18.255495  0.949396
18.259493  0.960404
18.263495  0.923754
18.267502  0.877645
18.271495  0.825513
18.275493  0.746100
18.279495  0.638298
18.283493  0.532132
18.287503  0.449990
18.291493  0.375429
18.295495  0.277220
18.299493  0.156828
18.303495  0.051118
18.307501 -0.016358
18.311495 -0.068865
18.315493 -0.147546
18.319496 -0.257696
18.323663 -0.362333
18.327502 -0.431268
18.331494 -0.479098
18.335497 -0.542295
18.339490 -0.628489
18.343494 -0.707282
18.347502 -0.753243
18.351502 -0.779599
18.355596 -0.816097
18.359493 -0.863892
18.363492 -0.891870
18.367503 -0.879465
18.371495 -0.845933
18.375492 -0.824797
18.379494 -0.817275
18.383508 -0.788481
18.387498 -0.712714
18.391506 -0.607397
18.395496 -0.512063
18.399496 -0.443344
18.403496 -0.385897
18.407505 -0.325771
18.411505 -0.274764
18.415497 -0.251300
18.419504 -0.247537
18.423503 -0.233492
18.427497 -0.195949
18.431496 -0.158168
18.435504 -0.151933
18.439496 -0.178206
18.443496 -0.206528
18.447715 -0.210024
18.451627 -0.187816
18.455501 -0.151216
18.459471 -0.102252
18.463502 -0.036628
18.467502  0.036379
18.471476  0.089239
18.475716  0.101654
18.479617  0.088131
18.483498  0.085561
18.487496  0.108995
18.491496  0.132742
18.495504  0.124164
18.499497  0.086940
18.503496  0.055906
18.507496  0.049629
18.511496  0.045219
18.515504  0.011078
18.519496 -0.045546
18.523496 -0.081335
18.527509 -0.068524
18.531498 -0.028546
18.535496 -0.005103
18.539504 -0.013506
18.543504 -0.031902
18.547670 -0.039688
18.551494 -0.043770
18.555642 -0.056809
18.559620 -0.066401
18.563502 -0.047653
18.567495 -0.003917
18.571493  0.024975
18.575495  0.004255
18.579502 -0.055353
18.583502 -0.111414
18.587491 -0.142322
18.591495 -0.168106
18.595493 -0.207789
18.599620 -0.235012
18.603504 -0.204980
18.607494 -0.120404
18.611495 -0.041190
18.615496 -0.021736
18.619502 -0.054940
18.623494 -0.087048
18.627494 -0.080615
18.631494 -0.050553
18.635502 -0.034072
18.639747 -0.036469
18.643669 -0.023962
18.647494  0.028178
18.651494  0.098983
18.655494  0.147671
18.659506  0.167227
18.663499  0.192969
18.667503  0.256319
18.671504  0.348150
18.675495  0.438107
18.679497  0.517932
18.683497  0.607723
18.687497  0.717798
18.691509  0.820109
18.695498  0.871668
18.699496  0.862117
18.703504  0.821408
18.707670  0.776532
18.711496  0.717639
18.715509  0.620466
18.719498  0.492732
18.723496  0.377981
18.727508  0.308153
18.731499  0.267106
18.735495  0.214580
18.739497  0.139094
18.743504  0.068711
18.747498  0.027668
18.751478  0.001519
18.755546 -0.040891
18.759517 -0.098659
18.763661 -0.125499
18.767495 -0.064445
18.771502  0.107009
18.775504  0.355067
18.779478 -0.373614
18.783672 -0.560264
18.787493 -0.729264
18.791493 -0.875235
18.795502 -0.966106
18.799495 -0.885739
18.803472 -0.458875
18.807498  0.414378
18.811495  1.630151
18.815496  2.884642
18.819761  3.809336
18.823497  4.139735
18.827503  3.819768
18.831504  2.996749
18.835496  1.931736
18.839496  0.891482
18.843623  0.066509
18.847502 -0.472289
18.851494 -0.764392
18.855495 -0.896266
18.859503 -0.931732
18.863506 -0.896821
18.868006 -0.816060
18.871504 -0.736823
18.875496 -0.702508
18.879496 -0.709571
18.883498 -0.711425
18.887496 -0.673811
18.891504 -0.614892
18.895497 -0.578557
18.899496 -0.575798
18.903496 -0.571361
18.907496 -0.531394
18.911504 -0.465756
18.915504 -0.409066
18.919500 -0.370619
18.923494 -0.324703
18.927497 -0.253545
18.931496 -0.180607
18.935496 -0.145468
18.939503 -0.152030
18.943496 -0.160380
18.947496 -0.135205
18.951496 -0.086220
18.955496 -0.047637
18.959506 -0.028452
18.963631 -0.003558
18.967498  0.045149
18.971502  0.100256
18.975494  0.136342
18.979671  0.162901
18.983493  0.215831
18.987668  0.306741
18.991501  0.402512
18.995495  0.463433
18.999493  0.489969
19.003497  0.519596
19.007494  0.577601
19.011503  0.644182
19.015493  0.682057
19.019496  0.689318
19.023493  0.705097
19.027585  0.758735
19.031502  0.830412
19.035495  0.874695
19.039493  0.876283
19.043495  0.867979
19.047701  0.888648
19.051658  0.937093
19.055492  0.986241
19.059541  1.032779
19.063578  1.098554
19.067491  1.179245
19.071548  1.224626
19.075473  1.188401
19.079557  1.086335
19.083503  0.986149
19.087498  0.934754
19.091476  0.910180
19.095573  0.857382
19.099483  0.759519
19.103496  0.655104
19.107502  0.586088
19.111506  0.547609
19.115507  0.501239
19.119490  0.428206
19.123586  0.348111
19.127501  0.280691
19.131489  0.209743
19.135494  0.103286
19.139488 -0.037522
19.143494 -0.170607
19.147502 -0.259940
19.151495 -0.314700
19.155653 -0.368927
19.159494 -0.431153
19.163562 -0.473358
19.167494 -0.472846
19.171501 -0.447614
19.175503 -0.436394
19.179495 -0.451214
19.183667 -0.466882
19.187494 -0.459762
19.191494 -0.440841
19.195502 -0.438179
19.199494 -0.454940
19.203494 -0.463354
19.207494 -0.444148
19.211494 -0.415681
19.215502 -0.410236
19.219711 -0.428697
19.223496 -0.436731
19.227500 -0.409908
19.231502 -0.366943
19.235495 -0.345464
19.239504 -0.353358
19.243495 -0.361735
19.247494 -0.347341
19.251497 -0.324408
19.255493 -0.321273
19.259478 -0.334162
19.263496 -0.325389
19.267509 -0.274604
19.271509 -0.215419
19.275498 -0.202536
19.279504 -0.246026
19.283548 -0.299236
19.287496 -0.316718
19.291491 -0.300737
19.295498 -0.278059
19.299494 -0.253806
19.303506 -0.211462
19.307499 -0.151647
19.311667 -0.109103
19.315496 -0.118017
19.319494 -0.166119
19.323495 -0.201150
19.327497 -0.190212
19.331501 -0.161262
19.335496 -0.173446
19.339497 -0.247806
19.343495 -0.338800
19.347774 -0.381747
19.351499 -0.360813
19.355497 -0.314741
19.359479 -0.277917
19.363476 -0.241383
19.367535 -0.183814
19.371612 -0.117801
19.375498 -0.078964
19.379547 -0.073917
19.383496 -0.065546
19.387500 -0.021485
19.391497  0.039294
19.395470  0.066393
19.399498  0.038965
19.403479 -0.012528
19.407475 -0.049458
19.411496 -0.072009
19.415501 -0.108011
19.419494 -0.164211
19.423496 -0.211920
19.427494 -0.226794
19.431502 -0.223081
19.435493 -0.231695
19.439492 -0.252050
19.443496 -0.245934
19.447662 -0.185556
19.451502 -0.093184
19.455494 -0.018982
19.459496  0.015581
19.463496  0.037407
19.467493  0.082864
19.471477  0.153991
19.475612  0.224879
19.479503  0.282043
19.483502  0.337436
19.487496  0.396968
19.491478  0.435347
19.495476  0.419548
19.499502  0.351605
19.503502  0.269659
19.507496  0.201473
19.511496  0.131771
19.515496  0.028501
19.519499 -0.106857
19.523669 -0.234517
19.527497 -0.324809
19.531496 -0.393432
19.535498 -0.475787
19.539500 -0.576194
19.543501 -0.661161
19.547496 -0.705342
19.551496 -0.725857
19.555496 -0.756583
19.559500 -0.799662
19.563500 -0.826402
19.567497 -0.830400
19.571681 -0.857859
19.575503 -0.965292
19.579500 -1.151839
19.583543 -1.348411
19.587493 -1.466798
19.591497 -1.433503
19.595495 -1.171682
19.599493 -0.589375
19.603491  0.357074
19.607493  1.552599
19.611495  2.686813
19.615497  3.381018
19.619492  3.412956
19.623493  2.845745
19.627491  1.943011
19.631496  0.972299
19.635495  0.091645
19.639493 -0.623310
19.643491 -1.117548
19.647698 -1.359063
19.651494 -1.380751
19.655491 -1.275969
19.659620 -1.133156
19.663498 -0.986871
19.667474 -0.837812
19.671472 -0.696798
19.675500 -0.586091
19.679498 -0.505139
19.683501 -0.422967
19.687480 -0.318781
19.691501 -0.215660
19.695560 -0.153730
19.699501 -0.133232
19.703503 -0.107013
19.707500 -0.039219
19.711477  0.047178
19.715618  0.100033
19.719497  0.104683
19.723495  0.098287
19.727505  0.117572
19.731667  0.153927
19.735497  0.173051
19.739497  0.166730
19.743497  0.164386
19.747547  0.190835
19.751497  0.230697
19.755495  0.250708
19.759497  0.251803
19.763504  0.276638
19.767505  0.354867
19.771703  0.458889
19.775501  0.534130
19.779494  0.565587
19.783499  0.592886
19.787498  0.656176
19.791838  0.743962
19.795498  0.807313
19.799495  0.818218
19.803499  0.796598
19.807499  0.777607
19.811495  0.770040
19.815617  0.760585
19.819500  0.748830
19.823496  0.755017
19.827493  0.787953
19.831546  0.824892
19.835501  0.838530
19.839487  0.835524
19.843484  0.851834
19.847489  0.906439
19.851484  0.970402
19.855495  0.993295
19.859502  0.957419
19.863495  0.890925
19.867493  0.824914
19.871495  0.756168
19.875501  0.664236
19.879494  0.551650
19.883490  0.446862
19.887495  0.366380
19.891742  0.290457
19.895495  0.188708
19.899494  0.063870
19.903495 -0.046575
19.907668 -0.116998
19.911501 -0.167213
19.915489 -0.235552
19.919494 -0.324619
19.923502 -0.393590
19.927484 -0.411631
19.931486 -0.403418
19.935495 -0.424011
19.939499 -0.491006
19.943485 -0.559472
19.947696 -0.572487
19.951477 -0.522488
19.955501 -0.447709
19.959496 -0.380312
19.963499 -0.324291
19.967495 -0.283807
19.971485 -0.281278
19.975813 -0.324045
19.979493 -0.366740
19.983545 -0.338024
19.987761 -0.213217
19.991532 -0.045875
19.995503  0.081954
19.999502  0.138703
20.003500  0.163742
20.007491  0.205406
20.011548  0.258197
20.015496  0.281202
20.019494  0.262290
20.023502  0.233277
20.027494  0.220793
20.031494  0.209138
20.035494  0.169167
20.039705  0.109577
20.043498  0.072690
20.047495  0.078183
20.051509  0.095240
20.055500  0.082634
20.059769  0.042095
20.063502  0.014674
20.067502  0.027333
20.071506  0.059201
20.075506  0.067536
20.079496  0.040376
20.083495  0.010152
20.087699  0.008513
20.091508  0.021655
20.095496  0.008835
20.099498 -0.041661
20.103492 -0.098045
20.107500 -0.130420
20.111492 -0.150760
20.115492 -0.192219
20.119492 -0.257724
20.123492 -0.311180
20.127499 -0.324717
20.131492 -0.315581
20.135667 -0.321267
20.139492 -0.347967
20.143625 -0.363953
20.147498 -0.347414
20.151496 -0.323021
20.155496 -0.334924
20.159504 -0.388544
20.163496 -0.438636
20.167504 -0.443215
20.171504 -0.414461
20.175496 -0.400040
20.179668 -0.421791
20.183496 -0.455624
20.187496 -0.475498
20.191504 -0.493081
20.195504 -0.535098
20.199590 -0.592494
20.203502 -0.616194
20.207497 -0.570383
20.211504 -0.475316
20.215504 -0.382853
20.219502 -0.314740
20.223505 -0.243079
20.227494 -0.136740
20.231494 -0.010855
20.235494  0.085717
20.239494  0.130925
20.243777  0.164289
20.247474  0.248836
20.251498  0.397816
20.255496  0.555409
20.259495  0.659990
20.263548  0.703602
20.267501  0.709934
20.271495  0.681122
20.275500  0.599161
20.279474  0.469983
20.283501  0.335930
20.287545  0.234558
20.291496  0.160564
20.295502  0.084543
20.299789  0.001524
20.303497 -0.061916
20.307781 -0.092886
20.311495 -0.122517
20.315486 -0.192951
20.319501 -0.301614
20.323494 -0.398825
20.327494 -0.446586
20.331494 -0.466104
20.335494 -0.516290
20.339502 -0.631906
20.343494 -0.796270
20.347590 -0.973953
20.351498 -1.148188
20.355496 -1.299970
20.359496 -1.348479
20.363496 -1.142990
20.367504 -0.551487
20.371496  0.420564
20.375498  1.583884
20.379496  2.625608
20.383496  3.236567
20.387506  3.242790
20.391496  2.676968
20.395498  1.748051
20.399504  0.729788
20.403499 -0.161003
20.407504 -0.831038
20.411496 -1.295758
20.415496 -1.606360
20.419496 -1.783778
20.423497 -1.818936
20.427503 -1.727075
20.431497 -1.577783
20.435495 -1.452536
20.439497 -1.377135
20.443495 -1.313239
20.447499 -1.220189
20.451499 -1.109433
20.455488 -1.025522
20.459502 -0.983986
20.463495 -0.951164
20.467494 -0.891213
20.471509 -0.813365
20.475498 -0.755043
20.479496 -0.726139
20.483495 -0.692886
20.487478 -0.624225
20.491506 -0.535785
20.495624 -0.469633
20.499637 -0.437110
20.503500 -0.403295
20.507494 -0.333776
20.511505 -0.238430
20.515503 -0.153736
20.519502 -0.092462
20.523706 -0.032910
20.527562  0.040114
20.531498  0.104375
20.535497  0.124910
20.539498  0.103168
20.543492  0.085630
20.547493  0.117019
20.551552  0.194483
20.555584  0.279457
20.559491  0.349860
20.563506  0.423225
20.567552  0.522025
20.571504  0.631959
20.575504  0.712902
20.579504  0.749139
20.583504  0.770903
20.587498  0.818552
20.591475  0.897597
20.595497  0.980376
20.599605  1.046869
20.603495  1.108521
20.607757  1.182919
20.611501  1.256535
20.615496  1.292742
20.619752  1.276671
20.623488  1.232543
20.627493  1.188781
20.631503  1.141681
20.635500  1.069222
20.639500  0.974141
20.643492  0.891830
20.647502  0.846517
20.651497  0.813832
20.655502  0.743878
20.659495  0.618978
20.663493  0.471923
20.667495  0.341817
20.671494  0.228370
20.675503  0.106185
20.679493 -0.023881
20.683495 -0.122993
20.687510 -0.164197
20.691498 -0.176053
20.695493 -0.215281
20.699495 -0.298938
20.703493 -0.384136
20.707506 -0.421610
20.711506 -0.412126
20.715504 -0.395396
20.719496 -0.394362
20.723496 -0.392636
20.727496 -0.367797
20.731496 -0.324313
20.735504 -0.282725
20.739496 -0.254952
20.771506 -0.245333
20.775497 -0.257321
20.779478 -0.277559
20.783476 -0.269083
20.787478 -0.207161
20.791475 -0.118492
20.795478 -0.065859
20.799476 -0.090518
20.803479 -0.175690
20.807492 -0.262314
20.811489 -0.166700
20.815496 -0.130958
20.819496 -0.156969
20.823504 -0.196008
20.827504 -0.208979
20.831551 -0.203222
20.835504 -0.202591
20.839506 -0.198743
20.843504 -0.156708
20.847633 -0.068049
20.851552  0.024321
20.855498  0.067088
20.859602  0.054203
20.863496  0.029942
20.867472  0.033340
20.871486  0.054206
20.875491  0.055224
20.879471  0.027378
20.883500  0.001990
20.887476  0.002669
20.891500  0.005161
20.895476 -0.034196
20.899620 -0.112888
20.903490 -0.165943
20.907486 -0.128354
20.911630 -0.006503
20.915647  0.127354
20.919713  0.213094
20.923600  0.260073
20.927660  0.318579
20.931680  0.413111
20.935592  0.529441
20.939531  0.657842
20.943608  0.807726
20.947552  0.965031
20.951494  1.068077
20.955494  1.055768
20.959495  0.934090
20.963500  0.776288
20.967493  0.653788
20.971497  0.578542
20.975493  0.519268
20.979495  0.459760
20.983501  0.420155
20.987495  0.421223
20.991493  0.450017
20.995495  0.475588
20.999494  0.490190
21.003551  0.519267
21.007722  0.587457
21.011634  0.683057
21.015499  0.765965
21.019500  0.811499
21.023499  0.832647
21.027501  0.849396
21.031498  0.850416
21.035757  0.807170
21.039494  0.723191
21.043593  0.641301
21.047499  0.588925
21.051490  0.538792
21.055500  0.444714
21.059482  0.304663
21.063747  0.168553
21.067608  0.086557
21.071564  0.065923
21.075495  0.083837
21.079568  0.130051
21.083572  0.215687
21.087583  0.333008
21.091620  0.426505
21.095689  0.429582
21.099498  0.332530
21.103537  0.193911
21.107499  0.074184
21.111501 -0.022258
21.115534 -0.123099
21.119622 -0.225438
21.123500 -0.276981
21.127496 -0.202904
21.131502  0.072586
21.135494  0.617562
21.139495  1.457701
21.143494  2.503296
21.147495  3.499243
21.151879  4.092768
21.155501  4.026649
21.159535  3.313630
21.163503  2.225014
21.167501  1.101746
21.171487  0.166985
21.175497 -0.514771
21.179487 -0.958929
21.183836 -1.190754
21.187726 -1.248366
21.191511 -1.204331
21.195501 -1.138304
21.199495 -1.081685
21.203482 -1.009122
21.207502 -0.895867
21.211502 -0.768635
21.215504 -0.681240
21.219480 -0.648681
21.223578 -0.629958
21.227557 -0.580915
21.231646 -0.503714
21.235528 -0.429194
21.239624 -0.363734
21.243591 -0.276070
21.247498 -0.139101
21.251539  0.028066
21.255653  0.172736
21.259623  0.268931
21.263500  0.350652
21.267476  0.465998
21.299581  0.609968
21.301736  0.728731
21.303737  0.786733
21.305878  0.806276
21.307967  0.834277
21.310358  0.880269
21.312531  0.898213
21.315491  0.836543
21.319502  0.703699
21.323494  0.572268
21.327504  0.511763
21.331633  0.524750
21.335501  0.557729
21.339494  0.565347
21.343501  0.544731
21.347490  0.511611
21.351493  0.472939
21.355506  0.436577
21.359506  0.428090
21.363494  0.474131
21.367498  0.564733
21.371492  0.645040
21.375503  0.662415
21.379556  0.624642
21.383494  0.594349
21.387493  0.616397
21.391493  0.665146
21.395498  0.676188
21.399474  0.619656
21.403498  0.526317
21.407500  0.444915
21.411565  0.390725
21.415502  0.343472
21.419496  0.285771
21.423487  0.225019
21.427504  0.168947
21.431635  0.095051
21.435502 -0.031073
21.439504 -0.202745
21.443474 -0.359230
21.447492 -0.444388
21.451494 -0.467728
21.455641 -0.486910
21.459585 -0.536280
21.463639 -0.595437
21.467518 -0.628842
21.471480 -0.632302
21.475610 -0.623990
21.479484 -0.604589
21.483497 -0.557054
21.487496 -0.489828
21.491509 -0.453597
21.495498 -0.497296
21.499496 -0.613735
21.503496 -0.741887
21.507496 -0.826994
21.511504 -0.871067
21.515496 -0.917682
21.519496 -0.993305
21.523632 -1.075565
21.527502 -1.119624
21.531501 -1.104431
21.535727 -1.046371
21.539551 -0.973070
21.543504 -0.896935
21.547474 -0.821211
21.551589 -0.759531
21.555500 -0.729026
21.559561 -0.721860
21.563615 -0.702507
21.567500 -0.646587
21.571493 -0.571926
21.575472 -0.515376
21.579537 -0.485560
21.583511 -0.457495
21.587496 -0.413957
21.591515 -0.375102
21.595768 -0.374901
21.599500 -0.410968
21.603494 -0.436853
21.607494 -0.416364
21.611497 -0.367611
21.615498 -0.335311
21.619600 -0.333766
21.623499 -0.338008
21.627753 -0.327713
21.631500 -0.322302
21.635736 -0.362667
21.639474 -0.462716
21.643476 -0.589531
21.647500 -0.692487
21.671519 -0.745739
21.673684 -0.764851
21.675664 -0.788607
21.677860 -0.841256
21.679852 -0.906648
21.683810 -0.941894
21.687492 -0.922309
21.691492 -0.872842
21.695492 -0.848044
21.699492 -0.875854
21.703500 -0.926779
21.707500 -0.946561
21.711494 -0.914457
21.715479 -0.856866
21.719474 -0.805400
21.723497 -0.759748
21.727499 -0.699546
21.731492 -0.618849
21.735501 -0.535657
21.739500 -0.470068
21.743476 -0.420984
21.747540 -0.367032
21.751498 -0.289736
21.755555 -0.191829
21.759542 -0.087452
21.763658  0.020329
21.767480  0.139760
21.771736  0.268457
21.775546  0.385445
21.779499  0.474362
21.783556  0.547838
21.787494  0.637771
21.791542  0.761813
21.795510  0.906374
21.799671  1.041697
21.803500  1.142351
21.807680  1.188249
21.811695  1.163434
21.815563  1.075003
21.819503  0.966178
21.823623  0.887401
21.827496  0.849621
21.831690  0.815524
21.835500  0.736867
21.839495  0.594660
21.843497  0.405220
21.847499  0.197726
21.851493 -0.006123
21.855495 -0.193889
21.859493 -0.354992
21.863498 -0.482344
21.867498 -0.585984
21.871495 -0.698682
21.875493 -0.856026
21.879495 -1.064299
21.883502 -1.290110
21.887491 -1.481804
21.891494 -1.588530
21.895583 -1.545180
21.899540 -1.248135
21.903500 -0.583598
21.907500  0.471031
21.911498  1.742695
21.915474  2.872653
21.919501  3.485017
21.923499  3.402508
21.927500  2.729829
21.931658  1.746663
21.935499  0.732554
21.939608 -0.126480
21.943484 -0.733387
21.947607 -1.059408
21.951601 -1.143303
21.955604 -1.071181
21.959550 -0.920494
21.963500 -0.722161
21.967569 -0.485781
21.971601 -0.247828
21.975642 -0.068802
21.979638  0.022892
21.983498  0.064678
21.987624  0.121393
21.991531  0.218245
21.995580  0.325824
21.999607  0.411319
22.003489  0.481141
22.007496  0.553282
22.011504  0.604128
22.015497  0.576627
22.019501  0.449527
22.023495  0.276888
22.027492  0.138979
22.031476  0.059522
22.035607 -0.008557
22.039504 -0.112354
22.043495 -0.236047
22.047476 -0.324896
22.051474 -0.357985
22.055539 -0.369741
22.059502 -0.393442
22.063575 -0.408245
22.067503 -0.367246
22.071500 -0.269181
22.075491 -0.171496
22.079494 -0.123096
22.083500 -0.106404
22.087724 -0.063554
22.091489  0.031111
22.095496  0.144279
22.099495  0.230400
22.103496  0.287562
22.107493  0.351791
22.111769  0.442790
22.115553  0.538338
22.119605  0.612638
22.123572  0.681931
22.127503  0.789784
22.131502  0.950090
22.135538  1.123353
22.139713  1.256915
22.143709  1.338447
22.147615  1.397103
22.151551  1.455153
22.155500  1.496482
22.159566  1.491203
22.163617  1.433718
22.179521  1.340427
22.181508  1.227546
22.183854  1.109090
22.187497  0.995976
22.191492  0.876401
22.195502  0.715693
22.199494  0.500110
22.203494  0.271599
22.207494  0.093612
22.211494 -0.019426
22.215502 -0.116583
22.219496 -0.245839
22.223492 -0.394639
22.227598 -0.511453
22.231494 -0.572376
22.235504 -0.601489
22.239498 -0.625382
22.243506 -0.632949
22.247506 -0.598375
22.251608 -0.531465
22.255549 -0.477492
22.259640 -0.460139
22.263550 -0.446360
22.267502 -0.388096
22.271501 -0.291162
22.275488 -0.218173
22.279495 -0.215641
22.283503 -0.259878
22.287499 -0.292963
22.291470 -0.294101
22.295500 -0.285108
22.299585 -0.267357
22.303606 -0.187657
22.307561  0.005272
22.311500  0.278024
22.315613  0.518457
22.319502  0.641472
22.323560  0.672101
22.327534  0.702758
22.331568  0.781079
22.335684  0.871949
22.339591  0.927686
22.343642  0.950589
22.347502  0.961145
22.351632  0.940863
22.355609  0.857093
22.407509  0.739061
22.409710  0.677323
22.412051  0.725384
22.414129  0.831417
22.416239  0.887194
22.418336  0.827153
22.420513  0.669057
22.422647  0.477848
22.424755  0.314623
22.426819  0.219797
22.428663  0.214677
22.430768  0.287568
22.432577  0.379263
22.435492  0.411455
22.439483  0.353679
22.443760  0.257210
22.447502  0.200648
22.451560  0.200734
22.455499  0.201653
22.459728  0.158927
22.463500  0.102890
22.467502  0.096772
22.471483  0.153588
22.475536  0.228933
22.479624  0.297875
22.483590  0.403212
22.487621  0.594415
22.491567  0.836577
22.495676  1.032604
22.499617  1.148798
22.503702  1.273212
22.507591  1.513619
22.531558  1.856105
22.533548  2.156683
22.535782  2.267341
22.538019  2.150983
22.540349  1.887752
22.543488  1.598562
22.547630  1.358238
22.551492  1.155901
22.556266  0.930350
22.559504  0.651271
22.563497  0.361924
22.567495  0.131028
22.571497 -0.028130
22.575496 -0.166106
22.579494 -0.320863
22.583549 -0.460486
22.587496 -0.526330
22.591496 -0.519645
22.595494 -0.511616
22.599503 -0.560821
22.603493 -0.651489
22.607495 -0.737451
22.611496 -0.826704
22.615495 -0.982037
22.619501 -1.228726
22.623495 -1.488103
22.627493 -1.618950
22.631495 -1.507636
22.635494 -1.102406
22.639503 -0.386369
22.643666  0.619230
22.647704  1.775861
22.651627  2.774529
22.655602  3.250667
22.659495  3.026835
22.663484  2.247260
22.667474  1.252100
22.671502  0.323942
22.675496 -0.438475
22.679474 -1.040669
22.683630 -1.464876
22.687587 -1.664609
22.691503 -1.654225
22.695501 -1.537786
22.699474 -1.421793
22.703502 -1.326056
22.707502 -1.209312
22.711493 -1.067124
22.715495 -0.963116
22.719496 -0.951038
22.723502 -0.998550
22.727493 -1.021695
22.731495 -0.986302
22.735493 -0.941641
22.739597 -0.946318
22.743502 -0.992367
22.747495 -1.027333
22.751494 -1.031116
22.755504 -1.032708
22.759550 -1.049387
22.763500 -1.046811
22.767717 -0.982809
22.771481 -0.873918
22.775739 -0.789906
22.779502 -0.774279
22.783493 -0.790471
22.787495 -0.770762
22.791493 -0.708653
22.795495 -0.667440
22.799501 -0.687445
22.803693 -0.719080
22.807496 -0.680561
22.811496 -0.567264
22.815493 -0.465312
22.819495 -0.449020
22.823502 -0.494552
22.827667 -0.519150
22.831493 -0.490144
22.835495 -0.458359
22.839493 -0.476491
22.843503 -0.520571
22.847493 -0.524537
22.851495 -0.478853
22.855502 -0.455413
22.859496 -0.518463
22.863504 -0.630324
22.867495 -0.668809
22.871494 -0.541067
22.875495 -0.276720
22.879494 -0.434738
22.883705 -0.539073
22.887493 -0.566301
22.891495 -0.521302
22.895493 -0.483625
22.899497 -0.515957
22.903501 -0.595698
22.907495 -0.655411
22.911493 -0.678309
22.915495 -0.719748
22.919493 -0.824048
22.923502 -0.950688
22.927493 -1.016316
22.931492 -1.001798
22.935494 -0.981573
22.939495 -1.035238
22.943502 -1.156146
22.947494 -1.267751
22.951552 -1.312899
22.955502 -1.298672
22.959711 -1.255644
22.963500 -1.185879
22.967501 -1.076746
22.971502 -0.954779
22.975505 -0.887032
22.979501 -0.905298
22.983503 -0.951220
22.987498 -0.932706
22.991497 -0.829901
22.995504 -0.713960
22.999494 -0.657347
23.003481 -0.651706
23.007494 -0.631779
23.011843 -0.568303
23.015631 -0.507802
23.019493 -0.508036
23.023502 -0.558272
23.027493 -0.594078
23.031495 -0.583646
23.035493 -0.563778
23.039495 -0.578053
23.043609 -0.608678
23.047496 -0.600428
23.051502 -0.542645
23.055494 -0.491848
23.059630 -0.499935
23.063501 -0.545731
23.067556 -0.564870
23.071501 -0.537527
23.075495 -0.512500
23.079493 -0.532473
23.083615 -0.564338
23.087551 -0.536096
23.091495 -0.434284
23.095502 -0.328752
23.099495 -0.288348
23.103519 -0.298708
23.107495 -0.289785
23.111492 -0.232036
23.115503 -0.170604
23.119565 -0.155216
23.123567 -0.166305
23.127508 -0.141004
23.131690 -0.063230
23.135667  0.007426
23.139494  0.009930
23.143495 -0.040726
23.147493 -0.078160
23.151508 -0.076899
23.155498 -0.084675
23.159496 -0.149305
23.163509 -0.241526
23.167732 -0.284446
23.171493 -0.254084
23.175495 -0.214534
23.179493 -0.238330
23.183504 -0.317594
23.187494 -0.380929
23.191495 -0.387755
23.195493 -0.372897
23.199495 -0.386496
23.203501 -0.416937
23.207495 -0.405116
23.211493 -0.327875
23.215495 -0.229837
23.219492 -0.157063
23.223506 -0.087396
23.227494  0.041221
23.231494  0.240116
23.235494  0.440070
23.239496  0.567073
23.243502  0.629322
23.247696  0.700106
23.251487  0.814063
23.255497  0.914603
23.259491  0.925767
23.263740  0.850553
23.267764  0.762839
23.271540  0.710274
23.275637  0.664625
23.279546  0.581970
23.283500  0.479433
23.287486  0.417566
23.291502  0.416037
23.295502  0.424029
23.299546  0.388082
23.303501  0.323163
23.307549  0.287284
23.311506  0.294404
23.315827  0.289215
23.319503  0.224365
23.323533  0.134674
23.327496  0.098661
23.331499  0.130531
23.335500  0.145905
23.339507  0.050050
23.343504 -0.162294
23.347495 -0.415685
23.351494 -0.643152
23.355494 -0.822629
23.359502 -0.907722
23.363494 -0.759827
23.367502 -0.208462
23.371494  0.787879
23.375494  2.038304
23.379502  3.181668
23.383496  3.866216
23.387501  3.909717
23.391495  3.346062
23.395501  2.369623
23.399496  1.248882
23.403669  0.247250
23.407495 -0.459845
23.411494 -0.850389
23.415502 -1.035586
23.419493 -1.144963
23.423495 -1.221200
23.427493 -1.230235
23.431495 -1.156733
23.435502 -1.054557
23.439495 -0.990492
23.443644 -0.966691
23.447495 -0.932456
23.451493 -0.865634
23.455503 -0.805864
23.459493 -0.793461
23.463495 -0.803084
23.467493 -0.769510
23.471503 -0.674182
23.475492 -0.573858
23.479502 -0.527914
23.483668 -0.520112
23.487495 -0.482040
23.491494 -0.387960
23.495504 -0.292286
23.499494 -0.258122
23.503494 -0.274077
23.507494 -0.271251
23.511494 -0.213079
23.515502 -0.133425
23.519494 -0.074783
23.523531 -0.019295
23.527504  0.085378
23.531488  0.239142
23.535494  0.366222
23.539501  0.399232
23.543494  0.367742
23.547704  0.371066
23.551500  0.461182
23.555495  0.585222
23.559610  0.659712
23.563494  0.671344
23.567500  0.675268
23.571674  0.712475
23.575502  0.766909
23.579496  0.809500
23.583492  0.851955
23.587555  0.928379
23.591494  1.036451
23.595474  1.130508
23.599490  1.177628
23.603768  1.195663
23.607491  1.221382
23.611493  1.252198
23.615492  1.240320
23.619501  1.153412
23.623491  1.025409
23.627493  0.924735
23.631491  0.874287
23.635493  0.826599
23.639499  0.728762
23.643493  0.593070
23.647491  0.480709
23.651495  0.421590
23.655493  0.377904
23.659501  0.298207
23.663491  0.186426
23.667493  0.092163
23.671492  0.038033
23.675508 -0.013567
23.679560 -0.106354
23.683503 -0.222997
23.687504 -0.300546
23.691496 -0.311750
23.695493 -0.302636
23.699494 -0.333799
23.703494 -0.404635
23.707504 -0.462344
23.711494 -0.478762
23.715494 -0.486188
23.719494 -0.525335
23.723500 -0.582949
23.727502 -0.607867
23.731494 -0.581646
23.735494 -0.544345
23.739494 -0.539215
23.743494 -0.552964
23.747502 -0.535508
23.751495 -0.472930
23.755670 -0.412013
23.759494 -0.399837
23.763600 -0.418931
23.767502 -0.407045
23.771494 -0.337917
23.775495 -0.256483
23.779502 -0.221199
23.783510 -0.230323
23.787504 -0.229975
23.791687 -0.189556
23.795494 -0.139113
23.799501 -0.119154
23.803497 -0.119464
23.807495 -0.098973
23.811497 -0.058233
23.815495 -0.055353
23.819504 -0.132894
23.823497 -0.250421
23.827647 -0.318913
23.831495 -0.301328
23.835497 -0.252659
23.839506 -0.247916
23.843497 -0.291386
23.847494 -0.321528
23.851478 -0.296426
23.855496 -0.242645
23.859507 -0.207601
23.863506 -0.186670
23.867555 -0.127341
23.871504 -0.006619
23.875504  0.124036
23.879539  0.191343
23.883553  0.182843
23.887640  0.151410
23.891621  0.143844
23.895500  0.155607
23.899565  0.163038
23.903500  0.172262
23.907480  0.213000
23.911502  0.289726
23.915494  0.359051
23.919495  0.368078
23.923494  0.309058
23.927494  0.222441
23.931502  0.149404
23.935494  0.101148
23.939494  0.080780
23.943494  0.111387
23.947494  0.213813
23.951502  0.357306
23.955494  0.459523
23.959494  0.457272
23.963495  0.371508
23.967494  0.283560
23.971502  0.247399
23.975494  0.245251
23.979494  0.235618
23.983502  0.220531
23.987495  0.238110
23.991505  0.294407
23.995495  0.335480
23.999493  0.305114
24.003495  0.212358
24.007494  0.116753
24.011503  0.050445
24.015493 -0.018917
24.019669 -0.136131
24.023493 -0.290004
24.027495 -0.423179
24.031501 -0.505615
24.035495 -0.569723
24.039494 -0.660170
24.043496 -0.769553
24.047493 -0.848195
24.051503 -0.872035
24.055494 -0.873878
24.059495 -0.895708
24.063502 -0.929574
24.067495 -0.932064
24.071502 -0.896439
24.075495 -0.883131
24.079494 -0.960156
24.083631 -1.126445
24.087493 -1.314926
24.091503 -1.458389
24.095493 -1.512540
24.099502 -1.402273
24.103502 -0.989457
24.107497 -0.157638
24.111496  1.037349
24.115496  2.306449
24.119496  3.247770
24.123504  3.571080
24.127498  3.244391
24.131495  2.456314
24.135497  1.469785
24.139496  0.515381
24.143504 -0.237897
24.147715 -0.702773
24.151502 -0.904791
24.155501 -0.959498
24.159502 -0.975792
24.163476 -0.977325
24.167498 -0.929253
24.171503 -0.826790
24.175502 -0.727173
24.179501 -0.687512
24.183503 -0.693621
24.187503 -0.673812
24.191498 -0.581601
24.195490 -0.443405
24.199500 -0.315133
24.203665 -0.211315
24.207629 -0.102471
24.211556  0.021189
24.215708  0.115293
24.219502  0.130054
24.223493  0.076034
24.227494  0.014234
24.231494 -0.016726
24.235494 -0.037078
24.239502 -0.079206
24.243494 -0.128074
24.247494 -0.136142
24.251494 -0.092130
24.255494 -0.044308
24.259503 -0.040934
24.263494 -0.065519
24.267494 -0.054834
24.271494  0.020736
24.275540  0.118147
24.279487  0.175129
24.283494  0.184800
24.287503  0.193045
24.291501  0.228911
24.295495  0.268915
24.299493  0.281807
24.303495  0.284202
24.307494  0.324555
24.311505  0.415924
24.315494  0.511377
24.319495  0.559821
24.323534  0.569802
24.327495  0.596041
24.331501  0.668087
24.335611  0.756854
24.339628  0.819774
24.343503  0.857921
24.347497  0.905305
24.351494  0.968024
24.355491  1.002718
24.359509  0.969126
24.363498  0.886105
24.367496  0.811472
24.371496  0.768754
24.375497  0.718606
24.379504  0.615039
24.383496  0.472378
24.387496  0.353526
24.391504  0.294825
24.395497  0.266379
24.399506  0.218790
24.403498  0.150888
24.407498  0.105355
24.411498  0.100368
24.415496  0.094345
24.419500  0.034917
24.423494 -0.072684
24.427495 -0.169692
24.431502 -0.213754
24.435496 -0.221271
24.439493 -0.232168
24.443498 -0.255067
24.447474 -0.269446
24.451500 -0.271768
24.455557 -0.289585
24.459495 -0.335348
24.463494 -0.363900
24.467492 -0.308915
24.471498 -0.167783
24.475497 -0.020934
24.479474  0.051834
24.483760  0.056502
24.487498  0.065798
24.491497  0.124405
24.495501  0.199764
24.499499  0.234910
24.503485  0.225452
24.507500  0.217123
24.511493  0.233883
24.515491  0.240424
24.519493  0.191602
24.523499  0.099664
24.527493  0.025761
24.531492  0.005911
24.535493  0.009785
24.539491 -0.013605
24.543495 -0.065543
24.547749 -0.098014
24.551477 -0.082932
24.555493 -0.052857
24.559496 -0.056227
24.563493 -0.089749
24.567502 -0.101747
24.571493 -0.061947
24.575495 -0.002830
24.579494  0.023077
24.583495  0.011227
24.587506  0.005906
24.591505  0.035040
24.595619  0.071355
24.599494  0.073746
24.603489  0.048066
24.607500  0.038734
24.611501  0.061599
24.615495  0.074192
24.619493  0.030452
24.623495 -0.051854
24.627501 -0.105421
24.631495 -0.094041
24.635493 -0.053730
24.639495 -0.042311
24.643493 -0.067644
24.647503 -0.088233
24.651494 -0.077022
24.655495 -0.055759
24.659506 -0.054629
24.663505 -0.058950
24.667502 -0.023525
24.671496  0.060489
24.675494  0.139875
24.679494  0.158053
24.683494  0.126031
24.687501  0.111578
24.691494  0.159317
24.695502  0.245631
24.699508  0.323498
24.703563  0.389710
24.707493  0.479341
24.711495  0.598542
24.715493  0.695794
24.719502  0.717376
24.723493  0.673117
24.727495  0.621724
24.731494  0.593756
24.735495  0.554552
24.739502  0.455455
24.743495  0.304077
24.747493  0.160709
24.751665  0.066896
24.755539  0.001195
24.759504 -0.080361
24.763479 -0.177427
24.767473 -0.248106
24.771476 -0.277425
24.775474 -0.309289
24.779476 -0.389395
24.783503 -0.496372
24.787502 -0.561853
24.791496 -0.558887
24.795474 -0.538119
24.799504 -0.559647
24.803599 -0.615260
24.807507 -0.649860
24.811628 -0.651807
24.815497 -0.684146
24.819496 -0.803565
24.823496 -0.959460
24.827504 -0.991451
24.831496 -0.728774
24.835496 -0.093116
24.839496  0.868068
24.843496  1.993395
24.847498  3.019938
24.851898  3.632370
24.855500  3.601697
24.859517  2.943065
24.863504  1.936226
24.867619  0.955888
24.871502  0.236338
24.875496 -0.253065
24.879496 -0.277507
24.883498 -0.704352
24.887502 -0.944916
24.891496 -0.948280
24.895496 -0.811528
24.899503 -0.666068
24.903506 -0.560184
24.907496 -0.455951
24.911504 -0.319979
24.915504 -0.181469
24.919491 -0.090322
24.923521 -0.046861
24.927496 -0.004906
24.931504  0.059551
24.935496  0.113170
24.939496  0.113983
24.943496  0.076997
24.947496  0.064794
24.951504  0.112526
24.955538  0.185677
24.959504  0.226186
24.963496  0.225299
24.967496  0.227564
24.971496  0.267030
24.975496  0.328827
24.979556  0.385275
24.983502  0.444231
24.987497  0.534829
24.991496  0.651860
24.995491  0.741170
24.999502  0.755990
25.003502  0.717093
25.007503  0.694701
25.011811  0.727961
25.015496  0.782604
25.019496  0.800122
25.023504  0.772767
25.027498  0.746920
25.031497  0.754993
25.035496  0.772278
25.039499  0.759966
25.043535  0.732830
25.047703  0.750265
25.051501  0.837103
25.055469  0.945168
25.059547  1.011471
25.063665  1.033650
25.067544  1.064348
25.071497  1.139306
25.075478  1.234848
25.079501  1.303902
25.083488  1.337151
25.087494  1.365245
25.091508  1.399703
25.095498  1.399720
25.099496  1.320306
25.103504  1.179283
25.107781  1.046024
25.111499  0.960420
25.115504  0.890164
25.119496  0.784624
25.123496  0.650168
25.127509  0.543032
25.131498  0.491997
25.135496  0.458758
25.139509  0.390215
25.143498  0.291356
25.147496  0.219581
25.151571  0.207594
25.155504  0.218255
25.159496  0.191873
25.163496  0.122420
25.167498  0.060230
25.171625  0.038688
25.175564  0.026544
25.179498 -0.027363
25.183496 -0.119012
25.187496 -0.190060
25.191496 -0.204481
25.195504 -0.193648
25.199496 -0.208303
25.203504 -0.246860
25.207504 -0.259869
25.211503 -0.222531
25.215727 -0.173684
25.219490 -0.166587
25.223494 -0.198377
25.227502 -0.215515
25.231494 -0.188806
25.235494 -0.154851
25.239494 -0.165117
25.243756 -0.211682
25.247498 -0.233227
25.251496 -0.195093
25.255508 -0.135623
25.259507 -0.116286
25.263528 -0.142234
25.267496 -0.159701
25.271496 -0.131883
25.275504 -0.087867
25.279504 -0.078821
25.283560 -0.106358
25.287507 -0.124545
25.291500 -0.110149
25.295506 -0.099375
25.299505 -0.137472
25.303496 -0.210967
25.307496 -0.259242
25.311568 -0.253429
25.315502 -0.235495
25.319751 -0.262049
25.323498 -0.327656
25.327496 -0.372283
25.331496 -0.363528
25.335504 -0.340429
25.339496 -0.356858
25.343566 -0.403291
25.347475 -0.416909
25.351545 -0.364173
25.355509 -0.281031
25.359506 -0.221911
25.363469 -0.193910
25.367500 -0.161676
25.371510 -0.106999
25.375501 -0.059239
25.379493 -0.055835
25.383506 -0.086821
25.387498 -0.102102
25.391496 -0.075599
25.395505 -0.038818
25.399496 -0.034776
25.403496 -0.052081
25.407627 -0.028316
25.411726  0.080329
25.415506  0.252068
25.419504  0.428823
25.423496  0.575876
25.427504  0.696808
25.431496  0.797521
25.435496  0.858585
25.439496  0.854076
25.443496  0.786984
25.447504  0.690104
25.451496  0.589864
25.455496  0.480838
25.459496  0.343743
25.463496  0.179725
25.467504  0.011936
25.471496 -0.146650
25.475496 -0.310405
25.479496 -0.493291
25.483506 -0.672321
25.487506 -0.799408
25.491505 -0.855506
25.495495 -0.877204
25.499497 -0.915967
25.503495 -0.979239
25.507497 -1.030227
25.511509 -1.046450
25.515499 -1.056833
25.519504 -1.106727
25.523504 -1.202603
25.527497 -1.317267
25.531495 -1.444279
25.535505 -1.607282
25.539496 -1.784813
25.543497 -1.839148
25.547495 -1.562307
25.551497 -0.827698
25.555503  0.285844
25.559504  1.504129
25.563496  2.482422
25.567504  2.951670
25.571496  2.812566
25.575496  2.152021
25.579498  1.192718
25.583496  0.203057
25.587506 -0.604180
25.591497 -1.145090
25.595506 -1.460864
25.599496 -1.633671
25.603496 -1.701094
25.607496 -1.655914
25.611509 -1.514665
25.615498 -1.350722
25.619633 -1.238477
25.623504 -1.180840
25.627504 -1.120355
25.631496 -1.022593
25.635505 -0.922160
25.639496 -0.871687
25.643499 -0.864791
25.647476 -0.838229
25.651504 -0.748993
25.655505 -0.621874
25.659497 -0.509548
25.663498 -0.425697
25.667502 -0.337021
25.671476 -0.216733
25.675495 -0.088220
25.679490 -0.001675
25.683494  0.028540
25.687500  0.041577
25.691492  0.076900
25.695492  0.124401
25.699492  0.146413
25.703492  0.136098
25.707502  0.126711
25.711492  0.140014
25.715492  0.151221
25.719492  0.125568
25.723508  0.077899
25.727779  0.067607
25.731496  0.127999
25.735500  0.223296
25.739496  0.292991
25.743496  0.324835
25.747494  0.358649
25.751494  0.419884
25.755500  0.480939
25.759496  0.508444
25.763697  0.525987
25.767503  0.592283
25.771494  0.718325
25.775494  0.840505
25.779494  0.890046
25.783494  0.868547
25.787505  0.835263
25.791496  0.828102
25.795496  0.821661
25.799496  0.772718
25.803496  0.687679
25.807508  0.618862
25.811498  0.595104
25.815496  0.583609
25.819505  0.537499
25.823496  0.463694
25.827504  0.414858
25.831684  0.413792
25.835499  0.414671
25.839494  0.357602
25.843502  0.245550
25.847494  0.140987
25.851494  0.086983
25.855495  0.057609
25.859494  0.000653
25.863502 -0.089559
25.867494 -0.168360
25.871475 -0.206000
25.875474 -0.227794
25.879493 -0.273778
25.883496 -0.337037
25.887478 -0.370805
25.891794 -0.357050
25.895497 -0.340105
25.899493 -0.375109
25.903505 -0.458756
25.907493 -0.534303
25.911495 -0.561586
25.915493 -0.557438
25.919495 -0.556613
25.923509 -0.553931
25.927506 -0.512433
25.931503 -0.426909
25.935499 -0.349955
25.939496 -0.333299
25.943496 -0.353796
25.947759 -0.328152
25.951504 -0.214606
25.955493 -0.081127
25.959481 -0.048364
25.963500 -0.158592
25.967546 -0.310371
25.971500 -0.347878
25.975496 -0.224780
25.979470 -0.041452
25.983533  0.091845
25.987492  0.166326
25.991525  0.225344
25.995490  0.270331
25.999493  0.266635
26.003475  0.214931
26.007498  0.166540
26.011488  0.160070
26.015494  0.173277
26.019485  0.159352
26.023509  0.116604
26.027499  0.093616
26.031504  0.122887
26.035504  0.175798
26.039584  0.200599
26.043504  0.189547
26.047497  0.182970
26.051504  0.206948
26.055497  0.232399
26.059495  0.212962
26.063504  0.149850
26.067496  0.092853
26.071506  0.074124
26.075498  0.065953
26.079496  0.022233
26.083505 -0.052955
26.087496 -0.105934
26.091498 -0.104924
26.095496 -0.083929
26.099496 -0.094934
26.103504 -0.130973
26.107503 -0.125915
26.111777 -0.033809
26.115613  0.115566
26.119502  0.255225
26.123501  0.359412
26.127495  0.458872
26.131637  0.580972
26.135567  0.705069
26.139495  0.795671
26.143505  0.861351
26.147495  0.948796
26.151497  1.073493
26.155497  1.182006
26.159497  1.203630
26.163749  1.129871
26.167497  1.019993
26.171495  0.927414
26.175497  0.844549
26.179496  0.733283
26.183505  0.590998
26.187495  0.459719
26.191497  0.369979
26.195495  0.301302
26.199509  0.215380
26.203499  0.114407
26.207496  0.040812
26.211508  0.017277
26.215499  0.011470
26.219496 -0.022554
26.223504 -0.081848
26.227498 -0.117831
26.231508 -0.101075
26.235506 -0.060415
26.239545 -0.048330
26.243504 -0.082979
26.247603 -0.141242
26.251496 -0.204831
26.255621 -0.290204
26.259497 -0.409674
26.263496 -0.500398
26.267562 -0.412455
26.271507  0.009635
26.275479  0.820553
26.279670  1.928903
26.283487  3.118465
26.287509  4.096566
26.291506  4.576021
26.295505  4.404976
26.299495  3.668951
26.303498  2.653916
26.307495  1.675057
26.311497  0.908710
26.315503  0.358900
26.319497 -0.041431
26.323519 -0.317284
26.327508 -0.441523
26.331498 -0.412036
26.335498 -0.298551
26.339502 -0.192334
26.343510 -0.126006
26.347585 -0.068202
26.351491  0.007614
26.355502  0.078098
26.359494  0.106241
26.363494  0.102022
26.367494  0.118184
26.371495  0.182469
26.375502  0.258376
26.379494  0.291361
26.383494  0.280406
26.387494  0.278450
26.391494  0.321721
26.395502  0.382891
26.399494  0.408950
26.403494  0.391746
26.407494  0.377357
26.411494  0.403434
26.415502  0.450300
26.419494  0.472285
26.423494  0.464693
26.427494  0.471793
26.431494  0.524576
26.435509  0.595727
26.439506  0.635287
26.443496  0.638906
26.447504  0.654574
26.451506  0.717101
26.455509  0.799565
26.459498  0.849137
26.463496  0.858784
26.467503  0.876094
26.471504  0.936985
26.475496  1.015644
26.479498  1.059334
26.483495  1.059324
26.487493  1.059474
26.491540  1.091722
26.495508  1.129871
26.499496  1.127057
26.503504  1.085174
26.507506  1.058944
26.511496  1.086753
26.515503  1.141400
26.519505  1.166864
26.523497  1.149547
26.527497  1.125950
26.531493  1.117424
26.535495  1.085979
26.539492  0.981793
26.543502  0.825954
26.547601  0.709021
26.551504  0.691246
26.555548  0.732406
26.559474  0.745820
26.563844  0.701085
26.567481  0.641427
26.571499  0.607196
26.575501  0.577865
26.579474  0.506380
26.583494  0.389559
26.587494  0.273421
26.591502  0.187730
26.595502  0.104392
26.599494 -0.018125
26.603494 -0.163629
26.607506 -0.262896
26.611508 -0.275770
26.615486 -0.242911
26.619506 -0.235683
26.623491 -0.269313
26.627502 -0.294516
26.631495 -0.275177
26.635495 -0.243912
26.639495 -0.261552
26.643630 -0.337921
26.647504 -0.420392
26.651493 -0.462615
26.655691 -0.479086
26.659501 -0.513932
26.663496 -0.571152
26.667493 -0.605496
26.671495 -0.586670
26.675495 -0.546203
26.679503 -0.540951
26.683494 -0.582850
26.687495 -0.629715
26.691493 -0.647025
26.695495 -0.654470
26.699501 -0.693306
26.703497 -0.761047
26.707493 -0.806848
26.711509 -0.796073
26.715498 -0.754782
26.719496 -0.733497
26.723496 -0.742312
26.727508 -0.746749
26.731506 -0.727251
26.735504 -0.717538
26.739496 -0.765787
26.743504 -0.868622
26.747508 -0.968911
26.751565 -1.024033
26.755489 -1.054295
26.759495 -1.107488
26.763494 -1.189783
26.767502 -1.256890
26.771494 -1.274996
26.775495 -1.267031
26.779493 -1.281593
26.783495 -1.327328
26.787502 -1.363250
26.791495 -1.359842
26.795493 -1.347405
26.799495 -1.381914
26.803493 -1.471460
26.807503 -1.563964
26.811493 -1.614124
26.815495 -1.638778
26.819493 -1.687242
26.823495 -1.770603
26.827501 -1.848342
26.831495 -1.887757
26.835495 -1.908473
26.839502 -1.945577
26.843506 -1.982051
26.847667 -1.951642
26.851520 -1.820484
26.855748 -1.640769
26.859498 -1.495551
26.863500 -1.394907
26.867500 -1.251507
26.871495 -0.972303
26.875498 -0.569548
26.879490 -0.414331
26.883502 -0.538834
26.887499 -0.600392
26.891560 -0.605522
26.895620 -0.625140
26.899704 -0.716402
26.903509 -0.857123
26.907498 -0.972386
26.911498 -1.026580
26.915499 -1.070192
26.919495 -1.180362
26.923493 -1.366412
26.927495 -1.558918
26.931509 -1.693714
26.935498 -1.779786
26.939496 -1.867775
26.943508 -1.971318
26.947498 -2.049053
26.951769 -2.063854
26.955502 -2.033196
26.959494 -2.005772
26.963551 -2.004827
26.967502 -2.021301
26.971494 -2.062799
26.975502 -2.178242
26.979502 -2.407558
26.983495 -2.712663
26.987503 -2.978103
26.991497 -3.078681
26.995493 -2.927527
26.999495 -2.461518
27.003493 -1.631342
27.007504 -0.477580
27.011500  0.760986
27.015495  1.678027
27.019494  1.931735
27.023494  1.486435
27.027706  0.614153
27.031506 -0.339703
27.035508 -1.175395
27.039493 -1.854080
27.043498 -2.377441
27.047495 -2.718476
27.051494 -2.864100
27.055552 -2.868023
27.059755 -2.820537
27.063505 -2.772547
27.067500 -2.713782
27.071497 -2.626371
27.075496 -2.532378
27.079508 -2.466970
27.083520 -2.420277
27.087490 -2.340829
27.091504 -2.202930
27.095504 -2.044683
27.099496 -1.922943
27.103504 -1.843717
27.107503 -1.759654
27.111509 -1.638241
27.115484 -1.508588
27.119506 -1.422634
27.123690 -1.385249
27.127503 -1.350617
27.131509 -1.287128
27.135609 -1.218738
27.139567 -1.189395
27.143507 -1.201546
27.147480 -1.206077
27.151770 -1.152817
27.155629 -1.041538
27.159502 -0.914393
27.163502 -0.800956
27.167586 -0.691602
27.171485 -0.576398
27.175540 -0.482178
27.179486 -0.438526
27.183498 -0.419844
27.187493 -0.356987
27.191525 -0.215454
27.195603 -0.043153
27.199483  0.077463
27.203731  0.121715
27.207671  0.146903
27.211599  0.214178
27.215498  0.305937
27.219503  0.348646
27.223504  0.312141
27.227509  0.251761
27.231552  0.239496
27.235509  0.280088
27.239500  0.320034
27.243504  0.325780
27.247504  0.319361
27.251504  0.331084
27.255506  0.347674
27.259626  0.332549
27.263779  0.284039
27.267503  0.240436
27.271487  0.220541
27.275506  0.187147
27.279497  0.092306
27.283657 -0.053001
27.287505 -0.180954
27.291504 -0.242748
27.295499 -0.261594
27.299607 -0.295222
27.303506 -0.358974
27.307504 -0.412890
27.311496 -0.427809
27.315496 -0.433804
27.319496 -0.478933
27.323504 -0.555659
27.327490 -0.601146
27.331509 -0.576661
27.335505 -0.521986
27.339505 -0.511481
27.343504 -0.568216
27.347497 -0.645951
27.351508 -0.693420
27.355498 -0.708959
27.359505 -0.720469
27.363503 -0.733807
27.367696 -0.726747
27.371499 -0.689110
27.375496 -0.643525
27.379496 -0.617945
27.383497 -0.613285
27.387506 -0.610077
27.391497 -0.598446
27.395496 -0.586914
27.399496 -0.580913
27.403785 -0.567157
27.407498 -0.531158
27.411495 -0.483910
27.415493 -0.456181
27.419502 -0.463351
27.423504 -0.487091
27.427497 -0.498841
27.431496 -0.492212
27.435496 -0.479917
27.439503 -0.462828
27.443504 -0.420398
27.447476 -0.342097
27.451504 -0.256257
27.455499 -0.206339
27.459501 -0.195699
27.463502 -0.175889
27.467501 -0.103819
27.471654 -0.000019
27.475493  0.067268
27.479481  0.056388
27.483496 -0.003335
27.487664 -0.048294
27.491573 -0.050725
27.495496 -0.038664
27.499496 -0.050177
27.503504 -0.086052
27.507496 -0.115213
27.511504 -0.112616
27.515957 -0.076631
27.519616 -0.014479
27.523502  0.069805
27.527493  0.163241
27.531502  0.231640
27.535504  0.237198
27.539616  0.172449
27.543497  0.069448
27.547496 -0.028199
27.551495 -0.097693
27.555502 -0.139223
27.559501 -0.154877
27.563476 -0.138493
27.567501 -0.088974
27.571812 -0.025088
27.575494  0.020829
27.579494  0.026971
27.583495 -0.000412
27.587494 -0.035208
27.591501 -0.054746
27.595496 -0.050462
27.599502 -0.019495
27.603494  0.042427
27.607502  0.134054
27.611505  0.242139
27.615498  0.352591
27.619496  0.468279
27.623495  0.605258
27.627501  0.764621
27.631494  0.915390
27.635502  1.017029
27.639494  1.058633
27.643617  1.065451
27.647502  1.063981
27.651494  1.050521
27.655574  1.003273
27.659481  0.922764
27.663506  0.847150
27.667634  0.816250
27.671496  0.822383
27.675849  0.807775
27.679495  0.716773
27.683495  0.546897
27.687502  0.344087
27.691563  0.154234
27.695502 -0.008645
27.699494 -0.147621
27.703494 -0.255446
27.707496 -0.317661
27.711494 -0.337749
27.715502 -0.343512
27.719495 -0.364294
27.723494 -0.412197
27.727494 -0.491295
27.731509 -0.612859
27.735506 -0.784458
27.739626 -0.979246
27.743504 -1.118590
27.747708 -1.085015
27.751504 -0.756642
27.755504 -0.051704
27.759504  1.019111
27.763628  2.301774
27.767504  3.489454
27.771502  4.214317
27.775501  4.238211
27.780033  3.607874
27.783574  2.616873
27.787632  1.598875
27.791501  0.750536
27.795490  0.118088
27.799487 -0.312025
27.803586 -0.551588
27.807492 -0.622090
27.811492 -0.580877
27.815492 -0.504001
27.819501 -0.440346
27.823507 -0.392921
27.827502 -0.346169
27.831562 -0.299990
27.835618 -0.268512
27.839496 -0.251382
27.843510 -0.222386
27.847508 -0.157615
27.851479 -0.068165
27.855504  0.009875
27.859772  0.059018
27.863715  0.100771
27.867817  0.163861
27.871502  0.241015
27.875618  0.295123
27.879505  0.310590
27.883503  0.319470
27.887498  0.363563
27.891669  0.441761
27.895494  0.510879
27.899494  0.537476
27.903502  0.535426
27.907494  0.543503
27.911495  0.571190
27.915494  0.582645
27.919495  0.545991
27.923503  0.490811
27.927535  0.494331
27.931501  0.600282
27.935505  0.766761
27.939506  0.910796
27.943504  0.995104
27.947496  1.051345
27.951504  1.120769
27.955496  1.196997
27.959504  1.243818
27.963659  1.255679
27.967494  1.272016
27.971502  1.324700
27.975502  1.392812
27.979494  1.427571
27.983496  1.413222
27.987494  1.383485
27.991504  1.376096
27.995494  1.389051
27.999494  1.394528
28.003507  1.385467
28.007701  1.386139
28.011500  1.411873
28.015496  1.437390
28.019505  1.420913
28.023504  1.351842
28.027496  1.257674
28.031497  1.162582
28.035496  1.054797
28.039500  0.909004
28.043500  0.736765
28.047694  0.592576
28.051495  0.515029
28.055498  0.476507
28.059498  0.414946
28.063491  0.311746
28.067549  0.212615
28.071489  0.165242
28.075474  0.163677
28.079506  0.172265
28.083573  0.180144
28.087621  0.204093
28.091508  0.249831
28.095622  0.296169
28.099697  0.316740
28.103496  0.303760
28.107494  0.269222
28.111494  0.229939
28.115502  0.194956
28.119501  0.164844
28.123495  0.136783
28.127492  0.107433
28.131498  0.075763
28.135489  0.047577
28.139494  0.032911
28.143502  0.033579
28.147687  0.037518
28.151495  0.032473
28.155503  0.022937
28.159493  0.025817
28.163542  0.048986
28.167502  0.081082
28.171500  0.104819
28.175494  0.114768
28.179634  0.118123
28.183496  0.120832
28.187496  0.118991
28.191504  0.107414
28.195504  0.093391
28.199591  0.093920
28.203498  0.115585
28.207496  0.142625
28.211496  0.151917
28.215758  0.138506
28.219502  0.118767
28.223494  0.106871
28.227502  0.097274
28.231494  0.077033
28.235494  0.048544
28.239494  0.029603
28.243506  0.031161
28.247499  0.044235
28.251496  0.054180
28.255497  0.062150
28.259509  0.083025
28.263498  0.121817
28.267496  0.160830
28.271504  0.175690
28.275496  0.161277
28.279633  0.137418
28.283496  0.128705
28.287541  0.140860
28.291506  0.157810
28.295502  0.160332
28.299498  0.143308
28.303496  0.113135
28.307668  0.075628
28.311500  0.034603
28.315500 -0.001329
28.319614 -0.021118
28.323504 -0.024002
28.327496 -0.024763
28.331504 -0.041266
28.335504 -0.076110
28.339496 -0.111739
28.343496 -0.124175
28.347601 -0.101327
28.351500 -0.046722
28.355750  0.034919
28.359502  0.149282
28.363496  0.301548
28.367493  0.478914
28.371496  0.656010
28.375773  0.817714
28.379495  0.967307
28.383509  1.108989
28.387504  1.229382
28.391569  1.303818
28.395494  1.318616
28.399503  1.279543
28.403492  1.199146
28.407495  1.084886
28.411494  0.943029
28.415494  0.786911
28.419503  0.633697
28.423494  0.492467
28.427497  0.359910
28.431474  0.231386
28.435476  0.114516
28.439502  0.026047
28.443502 -0.026310
28.447493 -0.054457
28.451494 -0.081919
28.455502 -0.129983
28.459494 -0.209391
28.463501 -0.315387
28.467503 -0.426345
28.471495 -0.514936
28.475502 -0.573357
28.479635 -0.631670
28.483493 -0.741143
28.487496 -0.929983
28.491502 -1.175521
28.495495 -1.411258
28.499494 -1.539925
28.503494 -1.436931
28.507667 -0.975175
28.511627 -0.097181
28.515499  1.098124
28.519495  2.329641
28.523518  3.225908
28.527496  3.507624
28.531497  3.136770
28.535508  2.310171
28.539500  1.314610
28.543495  0.381893
28.547509 -0.360008
28.551498 -0.865180
28.555506 -1.143547
28.559496 -1.250031
28.563496 -1.267907
28.567509 -1.272121
28.571498 -1.291531
28.575496 -1.306329
28.579494 -1.287547
28.583494 -1.236363
28.587502 -1.182940
28.591502 -1.156843
28.595502 -1.165116
28.599498 -1.192023
28.603494 -1.214183
28.607500 -1.219127
28.611488 -1.211204
28.615495 -1.199291
28.619494 -1.182318
28.623504 -1.146127
28.627682 -1.066763
28.631496 -0.916515
28.635504 -0.679228
28.639497 -0.371059
28.643506 -0.043313
28.647478  0.247424
28.651508  0.478392
28.655498  0.668352
28.659535  0.845882
28.663502  1.011995
28.667553  1.133208
28.671478  1.169967
28.675502  1.111729
28.679479  0.984096
28.683515  0.826282
28.687498  0.668966
28.691621  0.529218
28.695506  0.410041
28.699497  0.296325
28.703495  0.160993
28.707497 -0.010160
28.711503 -0.194471
28.715497 -0.337109
28.719497 -0.385266
28.723497 -0.320787
28.727495 -0.162009
28.731508  0.058267
28.735498  0.305924
28.739496  0.538085
28.743592  0.703594
28.747495  0.774364
28.751628  0.779227
28.755505  0.794446
28.759505  0.890961
28.763517  1.082314
28.767497  1.312052
28.771496  1.482885
28.775497  1.498269
28.779504  1.288942
28.783497  0.825949
28.787492  0.135562
28.791494 -0.687778
28.795502 -1.495812
28.800568 -2.141690
28.803500 -2.545931
28.807492 -2.718501
28.811492 -2.723112
28.815493 -2.629984
28.819492 -2.500336
28.823493 -2.393211
28.827499 -2.362206
28.831501 -2.436013
28.835492 -2.603772
28.839493 -2.820351
28.843492 -3.024628
28.847500 -3.154066
28.851499 -3.151464
28.855617 -2.977986
28.859504 -2.638033
28.863498 -2.190962
28.867497 -1.723516
28.871495 -1.297481
28.875497 -0.915967
28.879503 -0.098185
28.883499  0.282428
28.887477  0.614890
28.891504  0.858110
28.895496  0.979959
28.899504  0.963382
28.903683  0.819607
28.907494  0.592476
28.911502  0.341549
28.915473  0.112207
28.919493 -0.087397
28.923523 -0.285743
28.927498 -0.523611
28.931496 -0.826588
28.935496 -1.194356
28.939496 -1.602520
28.943504 -2.003057
28.947519 -2.331148
28.951498 -2.533416
28.955502 -2.598765
28.959498 -2.556834
28.963504 -2.446022
28.967473 -2.285035
28.971503 -2.069617
28.975503 -1.789230
28.979503 -1.444654
28.983497 -1.052774
28.987672 -0.641170
28.991494 -0.237954
28.995494  0.148806
28.999508  0.561452
29.003506  1.106163
29.007495  1.913147
29.011505  3.040924
29.015495  4.384766
29.019497  5.678762
29.023509  6.617583
29.027498  7.013628
29.031504  6.870135
29.035504  6.330085
29.039496  5.564434
29.043496  4.691987
29.047496  3.769425
29.051496  2.823400
29.055504  1.878806
29.059496  0.964233
29.063716  0.103728
29.067503 -0.690039
29.071494 -1.414217
29.075494 -2.069674
