17.474958  0.395329
17.478941  0.390339
17.482912  0.372824
17.506965  0.342708
17.509276  0.313800
17.511501  0.301673
17.513693  0.309824
17.516193  0.328008
17.518924  0.343498
17.522930  0.355495
17.526924  0.380262
17.530930  0.439218
17.534938  0.537111
17.538930  0.651358
17.542930  0.746731
17.546930  0.803005
17.550944  0.827037
17.554934  0.838143
17.558932  0.846763
17.562940  0.850265
17.566932  0.842773
17.570941  0.820094
17.574941  0.777467
17.578931  0.712375
17.582926  0.631322
17.587025  0.546983
17.591070  0.466233
17.594938  0.385645
17.598938  0.301439
17.602912  0.221078
17.606910  0.161911
17.611341  0.138419
17.614937  0.151468
17.618935  0.187388
17.623002  0.224200
17.626938  0.240413
17.630929  0.223749
17.634931  0.177214
17.638929  0.118695
17.642931  0.071519
17.646937  0.051321
17.650931  0.059064
17.654930  0.081392
17.658944  0.092268
17.662934  0.057372
17.667107 -0.051779
17.670930 -0.239994
17.674930 -0.487832
17.678945 -0.774350
17.682934 -1.089800
17.686932 -1.402664
17.690940 -1.608675
17.694940 -1.537376
17.698995 -1.046743
17.703105 -0.147586
17.706932  0.942956
17.710940  1.884739
17.714932  2.395580
17.718941  2.389478
17.722940  1.967940
17.726932  1.311853
17.730932  0.590661
17.734932 -0.068017
17.738933 -0.582238
17.742939 -0.920326
17.746934 -1.096817
17.750932 -1.150891
17.754932 -1.123184
17.758945 -1.046810
17.762943 -0.947315
17.766940 -0.842754
17.770944 -0.745405
17.774926 -0.664568
17.778924 -0.605219
17.782938 -0.565290
17.786929 -0.537500
17.790931 -0.512654
17.794939 -0.481050
17.798932 -0.437284
17.802932 -0.387573
17.807200 -0.346543
17.810938 -0.322040
17.814930 -0.307087
17.818930 -0.289659
17.822930 -0.265900
17.826930 -0.240050
17.830939 -0.214906
17.834930 -0.188756
17.838930 -0.162853
17.842945 -0.145893
17.846941 -0.144897
17.850933 -0.153672
17.854940 -0.158194
17.858933 -0.155659
17.862939 -0.161268
17.866934 -0.190965
17.871125 -0.243334
17.874963 -0.305229
17.878933 -0.368272
17.883019 -0.431265
17.886937 -0.493128
17.890936 -0.552889
17.894912 -0.614443
17.898931 -0.685574
17.902939 -0.770417
17.906912 -0.864165
17.911058 -0.956832
17.914933 -1.040094
17.918932 -1.108399
17.922940 -1.157644
17.926931 -1.187779
17.930933 -1.206687
17.934942 -1.229783
17.938934 -1.274733
17.942932 -1.353223
17.946945 -1.462068
17.950934 -1.580753
17.954932 -1.683010
17.958932 -1.755510
17.962932 -1.803862
17.966946 -1.837918
17.970934 -1.853627
17.974932 -1.833901
17.978940 -1.766725
17.982939 -1.657396
17.986932 -1.521890
17.990940 -1.372531
17.994933 -1.212427
17.998932 -1.040307
18.002940 -0.856076
18.006932 -0.661375
18.010940 -0.458381
18.014960 -0.251048
18.018933 -0.047534
18.022933  0.140873
18.026942  0.305024
18.030934  0.441655
18.034932  0.552197
18.038932  0.640293
18.042945  0.710899
18.046942  0.769541
18.050940  0.821093
18.054932  0.868228
18.058932  0.909718
18.063303  0.941391
18.066940  0.961072
18.070940  0.972727
18.074932  0.984925
18.078940  1.004998
18.082932  1.035318
18.086944  1.075781
18.090934  1.127091
18.094932  1.186892
18.098933  1.242993
18.103069  1.276604
18.106938  1.277316
18.110930  1.254117
18.114930  1.228410
18.118930  1.216083
18.122930  1.217314
18.126938  1.220440
18.130930  1.211887
18.135022  1.184646
18.138937  1.142507
18.142932  1.097544
18.146932  1.061573
18.150934  1.039424
18.154928  1.030469
18.158938  1.033376
18.162930  1.045257
18.166930  1.056372
18.171121  1.050030
18.175123  1.013595
18.178936  0.953116
18.182989  0.893551
18.186934  0.857972
18.190938  0.846578
18.195072  0.839486
18.198938  0.818431
18.202938  0.782871
18.206938  0.746729
18.210988  0.723900
18.214936  0.717850
18.218928  0.720545
18.222928  0.718109
18.226944  0.700784
18.230944  0.671676
18.234932  0.644896
18.238933  0.631997
18.242932  0.630892
18.246932  0.630767
18.250940  0.626576
18.254932  0.625208
18.258932  0.636093
18.262932  0.656950
18.266932  0.671698
18.270940  0.664976
18.274932  0.639324
18.278932  0.616953
18.282945  0.621201
18.286934  0.653097
18.290932  0.686863
18.294932  0.690668
18.298932  0.653454
18.302940  0.594266
18.306932  0.547941
18.310940  0.540175
18.314932  0.570993
18.318932  0.617025
18.322939  0.649121
18.326939  0.651454
18.330933  0.628273
18.334939  0.595566
18.338933  0.567369
18.342931  0.548521
18.346933  0.536460
18.350931  0.526839
18.354940  0.518466
18.358931  0.514458
18.362932  0.517118
18.366932  0.521256
18.370932  0.516287
18.375153  0.497920
18.378930  0.475041
18.382937  0.461536
18.386930  0.462489
18.390944  0.469683
18.394934  0.468283
18.398932  0.446810
18.402945  0.404064
18.406934  0.350421
18.410940  0.302500
18.414940  0.274341
18.418939  0.272267
18.422946  0.296211
18.426934  0.342673
18.430932  0.405458
18.434932  0.476273
18.438932  0.547379
18.442939  0.614306
18.446939  0.675766
18.450933  0.731158
18.454939  0.778809
18.458932  0.816532
18.462932  0.841471
18.466945  0.846433
18.470936  0.817854
18.474932  0.743814
18.478931  0.629337
18.482934  0.502685
18.486930  0.398946
18.491007  0.331591
18.494916  0.284090
18.498911  0.233366
18.502913  0.174622
18.506910  0.118624
18.511288  0.072804
18.514944  0.032589
18.518936 -0.011214
18.522913 -0.060474
18.526912 -0.104080
18.530991 -0.124800
18.534940 -0.116426
18.539030 -0.093602
18.543041 -0.080004
18.547189 -0.087954
18.550930 -0.113700
18.554930 -0.152371
18.558945 -0.214106
18.562935 -0.319819
18.566933 -0.477335
18.570932 -0.669513
18.574932 -0.877121
18.578940 -1.103906
18.582932 -1.351331
18.586932 -1.555662
18.590932 -1.566490
18.594934 -1.217189
18.598940 -0.450080
18.602939  0.594518
18.606933  1.606740
18.610944  2.261334
18.615073  2.390687
18.618933  2.037526
18.622941  1.371581
18.626940  0.579830
18.630942 -0.185036
18.634933 -0.810902
18.638932 -1.231602
18.642931 -1.437848
18.646930 -1.472298
18.650931 -1.403401
18.654938 -1.296374
18.658931 -1.196237
18.662929 -1.122875
18.666931 -1.074449
18.670932 -1.037006
18.674937 -0.996216
18.678931 -0.945770
18.682942 -0.888506
18.686934 -0.831178
18.691103 -0.778528
18.694932 -0.731772
18.698940 -0.690573
18.702932 -0.654018
18.706932 -0.621210
18.710945 -0.595446
18.714941 -0.587303
18.718940 -0.607397
18.723001 -0.653926
18.726935 -0.711680
18.730932 -0.764942
18.734933 -0.807607
18.738932 -0.840701
18.742932 -0.865026
18.746939 -0.877453
18.750933 -0.871987
18.754939 -0.845220
18.758933 -0.804312
18.762942 -0.770294
18.766942 -0.769489
18.770944 -0.816649
18.774932 -0.902644
18.778939 -0.996405
18.782912 -1.062744
18.786929 -1.087314
18.790925 -1.088781
18.794915 -1.105526
18.798927 -1.168043
18.802929 -1.279479
18.806918 -1.417004
18.811147 -1.550013
18.814936 -1.659325
18.818924 -1.743382
18.822943 -1.812385
18.826935 -1.880809
18.830931 -1.961427
18.834933 -2.058536
18.838931 -2.165548
18.842940 -2.272010
18.846931 -2.371947
18.850940 -2.463444
18.854935 -2.542988
18.858925 -2.603927
18.862931 -2.638977
18.866930 -2.641180
18.870939 -2.603853
18.874929 -2.523318
18.878931 -2.402628
18.882930 -2.251612
18.886940 -2.082418
18.890994 -1.904778
18.894940 -1.725935
18.898945 -1.553808
18.902934 -1.396655
18.906932 -1.257733
18.910940 -1.130931
18.914932 -1.002450
18.918934 -0.858803
18.922940 -0.697115
18.926932 -0.530065
18.931190 -0.379302
18.934930 -0.260925
18.938930 -0.175776
18.942930 -0.112481
18.946930 -0.057355
18.951062 -0.001032
18.954934  0.060267
18.958932  0.125286
18.962941  0.189269
18.966932  0.247210
18.970932  0.296083
18.974932  0.333751
18.978932  0.358044
18.982940  0.368777
18.986940  0.369374
18.990945  0.365496
18.994934  0.362798
18.999197  0.365341
19.002934  0.373816
19.006933  0.384519
19.010938  0.391570
19.014937  0.391343
19.019159  0.384473
19.022936  0.373907
19.026939  0.362490
19.030934  0.352691
19.034941  0.347313
19.038933  0.349258
19.042939  0.359521
19.046941  0.373860
19.050939  0.381133
19.054934  0.367940
19.058931  0.329593
19.063107  0.278127
19.066940  0.236042
19.070930  0.217007
19.074930  0.210818
19.078932  0.191418
19.082935  0.145608
19.086936  0.091876
19.090938  0.062743
19.094934  0.068916
19.098937  0.088994
19.102939  0.093841
19.106939  0.073099
19.110908  0.038295
19.115292  0.008376
19.118935 -0.004402
19.122929  0.000905
19.127063  0.017557
19.130934  0.037258
19.134938  0.053638
19.138932  0.062825
19.142944  0.063937
19.146935  0.059797
19.150932  0.055683
19.154933  0.055946
19.158932  0.060738
19.162944  0.064978
19.166936  0.061263
19.170934  0.046597
19.174940  0.027566
19.178932  0.016332
19.182939  0.018307
19.186941  0.023311
19.190931  0.011247
19.194941 -0.029736
19.198932 -0.088542
19.202926 -0.136623
19.206948 -0.150116
19.210933 -0.125029
19.214939 -0.073296
19.218939 -0.012063
19.222933  0.042643
19.226939  0.081197
19.230940  0.105500
19.234991  0.126616
19.238940  0.153445
19.242932  0.182742
19.246930  0.201804
19.250931  0.202200
19.254944  0.189280
19.258934  0.176549
19.262933  0.172027
19.266945  0.171789
19.270934  0.166529
19.274934  0.153123
19.278932  0.138446
19.282944  0.132760
19.286934  0.141788
19.290932  0.163952
19.295030  0.190895
19.298936  0.211003
19.302932  0.218021
19.306946  0.217623
19.310939  0.221314
19.314934  0.235292
19.318931  0.260952
19.322933  0.302872
19.326931  0.367231
19.330941  0.451330
19.334941  0.541006
19.338933  0.621898
19.342931  0.690853
19.346933  0.755130
19.350932  0.823762
19.354941  0.900043
19.358939  0.977994
19.362940  1.044332
19.366931  1.085289
19.370933  1.092951
19.374931  1.068862
19.378934  1.025754
19.382994  0.982547
19.386940  0.951157
19.390923  0.929411
19.394923  0.909181
19.398939  0.885958
19.402912  0.858176
19.406920  0.824423
19.410933  0.786291
19.414928  0.750509
19.418930  0.723968
19.422938  0.707209
19.426929  0.695488
19.430933  0.685922
19.434937  0.680183
19.438931  0.679224
19.442930  0.679266
19.446932  0.676875
19.450943  0.677031
19.454932  0.691501
19.458930  0.725233
19.462938  0.763282
19.466930  0.773471
19.470938  0.727589
19.474932  0.623642
19.478942  0.484461
19.482937  0.33410819.486934 -0.221834
19.490931 -0.635766
19.494934 -0.859658
19.498933 -0.718936
19.502940 -0.120361
19.506944  0.859806
19.511204  1.954450
19.514935  2.812658
19.518929  3.184411
19.522931  3.036277
19.526929  2.508811
19.530934  1.787995
19.534933  1.020582
19.538934  0.311038
19.542939 -0.255032
19.546939 -0.615377
19.550922 -0.758355
19.554939 -0.730185
19.558930 -0.605854
19.562930 -0.452197
19.566930 -0.311434
19.570930 -0.203259
19.574937 -0.131631
19.578926 -0.090902
19.582924 -0.071376
19.586934 -0.062787
19.590909 -0.054988
19.594912 -0.039116
19.598938 -0.012381
19.603082  0.017958
19.606937  0.039711
19.610933  0.047134
19.614929  0.045208
19.618932  0.042301
19.622939  0.041916
19.626931  0.043561
19.630929  0.049027
19.634931  0.062702
19.639071  0.083926
19.642938  0.103280
19.646931  0.111351
19.650932  0.109429
19.654940  0.107352
19.658938  0.112559
19.662937  0.124385
19.666936  0.136095
19.670932  0.138677
19.674932  0.124002
19.678933  0.087388
19.682980  0.028088
19.686929 -0.052229
19.690936 -0.149836
19.694912 -0.256980
19.698936 -0.360231
19.702935 -0.442278
19.706936 -0.490835
19.710916 -0.511790
19.714908 -0.530491
19.718931 -0.573279
19.722930 -0.647175
19.726930 -0.737604
19.730937 -0.823393
19.734931 -0.894919
19.738930 -0.960055
19.742932 -1.032755
19.748018 -1.117013
19.750940 -1.203386
19.755055 -1.279338
19.758935 -1.340342
19.762934 -1.390689
19.767459 -1.435656
19.770932 -1.474860
19.774933 -1.501253
19.778945 -1.502405
19.783209 -1.464194
19.786936 -1.379050
19.790930 -1.252287
19.794930 -1.098650
19.798930 -0.933080
19.802939 -0.765270
19.806940 -0.599957
19.810932 -0.438919
19.814931 -0.282717
19.818914 -0.132268
19.822912  0.011228
19.826953  0.148404
19.830943  0.282498
19.834931  0.415737
19.838933  0.543675
19.842931  0.653987
19.846942  0.733805
19.850934  0.780830
19.854939  0.806626
19.858940  0.827570
19.862932  0.854794
19.866940  0.894808
19.870945  0.953410
19.874936  1.029529
19.878940  1.105652
19.882955  1.152930
19.886934  1.151827
19.890932  1.109047
19.894931  1.054589
19.898942  1.022515
19.902932  1.030261
19.906980  1.069147
19.910922  1.113402
19.915088  1.140947
19.918925  1.145030
19.922934  1.128467
19.926931  1.095251
19.930937  1.051701
19.934938  1.011226
19.938929  0.991897
19.942931  1.006329
19.946942  1.051979
19.950935  1.109384
19.955106  1.150250
19.959101  1.151291
19.962934  1.106150
19.966940  1.028752
19.970944  0.946294
19.974935  0.885298
19.978932  0.857112
19.982934  0.851467
19.986934  0.845153
19.990938  0.820667
19.994939  0.776918
19.998909  0.722638
20.002940  0.666164
20.006919  0.616446
20.011102  0.585534
20.014936  0.578929
20.018934  0.587266
20.022933  0.596799
20.026933  0.605635
20.030939  0.622566
20.034933  0.650918
20.038933  0.679216
20.042933  0.688973
20.046932  0.669390
20.050944  0.625517
20.054936  0.575032
20.058943  0.536402
20.063108  0.517535
20.066932  0.513877
20.070930  0.514674
20.074938  0.509340
20.078930  0.490973
20.082929  0.459323
20.086929  0.422708
20.090931  0.394929
20.094945  0.387392
20.098934  0.402057
20.102932  0.430437
20.106940  0.460753
20.110932  0.488925
20.114932  0.520296
20.118932  0.555373
20.122932  0.576456
20.126996  0.558183
20.130944  0.495462
20.134932  0.415438
20.138932  0.356967
20.142932  0.339620
20.146932  0.353291
20.151072  0.373381
20.154935  0.382427
20.158914  0.378929
20.163065  0.369812
20.166937  0.357821
20.170936  0.337631
20.174934  0.303919
20.178930  0.261602
20.182934  0.225119
20.186938  0.204329
20.190989  0.191981
20.194986  0.171799
20.198980  0.141792
20.202930  0.121134
20.206940  0.127926
20.210930  0.158572
20.214930  0.195497
20.218943  0.226139
20.222924  0.247012
20.227090  0.256763
20.230938  0.254026
20.234925  0.239394
20.238931  0.213686
20.242925  0.176984
20.246931  0.136026
20.250933  0.111963
20.254938  0.132748
20.259004  0.211547
20.262938  0.332446
20.266929  0.459336
20.270931  0.559247
20.275107  0.617272
20.278930  0.634099
20.282934  0.619867
20.286925  0.593828
20.290933  0.580322
20.294990  0.597462
20.298936  0.647847
20.303036  0.711997
20.306910  0.746477
20.311413  0.704686
20.314938  0.576909
20.318930  0.404162
20.322953  0.242307
20.326942  0.119424
20.330934  0.032043
20.334939 -0.032551
20.338939 -0.082541
20.342933 -0.121380
20.346939 -0.148585
20.350940 -0.161195
20.354932 -0.160430
20.358942 -0.155824
20.362934 -0.158474
20.366932 -0.171026
20.370933 -0.187330
20.374933 -0.201328
20.378942 -0.214297
20.382932 -0.234487
20.386939 -0.272926
20.390940 -0.340131
20.394931 -0.442128
20.398933 -0.578010
20.402932 -0.750196
20.406933 -0.978530
20.410939 -1.277568
20.414933 -1.588506
20.418931 -1.739891
20.422944 -1.515945
20.426927 -0.804595
20.430933  0.288416
20.434940  1.451407
20.438931  2.313098
20.442933  2.634498
20.446931  2.405610
20.450941  1.787854
20.454939  0.990169
20.458941  0.191622
20.462939 -0.476102
20.467107 -0.934532
20.471052 -1.170428
20.474938 -1.231678
20.478937 -1.195019
20.482931 -1.126772
20.486938 -1.062975
20.490931 -1.013000
20.495013 -0.973993
20.498936 -0.942072
20.502930 -0.913226
20.506930 -0.879431
20.510964 -0.831346
20.514949 -0.768094
20.518932 -0.702840
20.522932 -0.656568
20.526945 -0.643630
20.530934 -0.659208
20.534932 -0.679306
20.538932 -0.676841
20.542932 -0.642667
20.546940 -0.592682
20.550940 -0.554596
20.554942 -0.547676
20.558934 -0.573242
20.562939 -0.619313
20.566932 -0.668680
20.570941 -0.703967
20.574932 -0.714694
20.578933 -0.706405
20.583104 -0.699135
20.586943 -0.709995
20.590988 -0.737761
20.594938 -0.768786
20.598932 -0.793391
20.602930 -0.808379
20.606935 -0.810987
20.610937 -0.803956
20.614937 -0.801821
20.618931 -0.820680
20.622937 -0.863090
20.626931 -0.916243
20.630929 -0.962314
20.634931 -0.992282
20.638929 -1.015601
20.642940 -1.056953
20.646929 -1.138661
20.650931 -1.262180
20.654928 -1.405931
20.658934 -1.541972
20.663069 -1.655620
20.666930 -1.749440
20.670930 -1.830108
20.674929 -1.895748
20.678937 -1.939057
20.682931 -1.960268
20.686938 -1.972366
20.690939 -1.991429
20.694931 -2.021010
20.698933 -2.045812
20.702945 -2.041993
20.706934 -1.993663
20.710940 -1.898030
20.714940 -1.758690
20.718932 -1.582480
20.722940 -1.384122
20.726940 -1.186357
20.730941 -1.009604
20.734936 -0.861046
20.738930 -0.733433
20.742932 -0.612447
20.746932 -0.485287
20.750933 -0.345767
20.754931 -0.195944
20.758933 -0.046219
20.762940  0.086836
20.766941  0.188200
20.770982  0.255329
20.775213  0.301817
20.778934  0.347852
20.782925  0.405948
20.786937  0.474694
20.790931  0.543498
20.794929  0.602046
20.798931  0.646852
20.802929  0.680193
20.806939  0.703149
20.810930  0.712245
20.814931  0.705086
20.818930  0.686023
20.822931  0.663293
20.826937  0.643984
20.830931  0.634233
20.834929  0.640433
20.838931  0.665912
20.843208  0.706050
20.846936  0.748585
20.850939  0.780675
20.854934  0.795675
20.858932  0.792717
20.862932  0.773146
20.866932  0.742288
20.870938  0.713456
20.874934  0.702601
20.878975  0.713568
20.882939  0.730238
20.886982  0.727488
20.890939  0.691606
20.894914  0.630347
20.899005  0.565157
20.902988  0.516061
20.906939  0.492378
20.910940  0.491673
20.914931  0.503928
20.918933  0.518620
20.922945  0.528979
20.926941  0.530173
20.930933  0.518330
20.935035  0.496111
20.938936  0.476893
20.943093  0.475180
20.946922  0.488745
20.950938  0.497456
20.954931  0.486822
20.958929  0.466734
20.962944  0.458641
20.966934  0.467961
20.970940  0.477459
20.974932  0.467353
20.979113  0.435544
20.982938  0.397021
20.986931  0.368704
20.990938  0.357777
20.994939  0.360927
20.998939  0.369665
21.002931  0.376044
21.006938  0.376956
21.010931  0.376183
21.014930  0.382653
21.019104  0.403873
21.022929  0.437025
21.026938  0.466233
21.030930  0.472369
21.034932  0.447952
21.038945  0.402967
21.042971  0.358512
21.046919  0.334887
21.050928  0.339615
21.054925  0.361927
21.058944  0.379660
21.062945  0.374252
21.066932  0.342804
21.070932  0.299932
21.074939  0.268759
21.078935  0.266744
21.082913  0.295227
21.086914  0.338514
21.091073  0.372992
21.094936  0.381320
21.098930  0.362777
21.102939  0.332991
21.107082  0.313616
21.110936  0.318079
21.114926  0.340361
21.118931  0.355316
21.123062  0.336778
21.126930  0.283284
21.130937  0.224920
21.135202  0.197252
21.138985  0.206625
21.143080  0.225916
21.146934  0.223715
21.150942  0.193063
21.154939  0.154447
21.158933  0.136486
21.162939  0.152979
21.166940  0.194411
21.170932  0.238854
21.175074  0.269743
21.178933  0.283900
21.182936  0.286632
21.186936  0.284660
21.190931  0.287321
21.195121  0.311624
21.198936  0.373961
21.202936  0.469907
21.206916  0.573090
21.210930  0.660208
21.214945  0.726039
21.218934  0.773385
21.222933  0.802033
21.226932  0.808593
21.230939  0.788566
21.234932  0.738073
21.238945  0.658039
21.242942  0.558066
21.246934  0.455612
21.250928  0.370237
21.255235  0.314096
21.258940  0.282882
21.262930  0.257736
21.266930  0.221150
21.270930  0.172682
21.274930  0.129611
21.278942  0.111760
21.283167  0.122330
21.286930  0.141934
21.290931  0.144131
21.294930  0.118171
21.298939  0.074760
21.302930  0.031066
21.306937 -0.003719
21.310938 -0.025865
21.314930 -0.028464
21.318938 -0.007207
21.322939  0.021411
21.326929  0.014956
21.330931 -0.070396
21.334929 -0.244033
21.338931 -0.474094
21.342937 -0.722726
21.346932 -0.978087
21.350929 -1.228001
21.355195 -1.396721
21.359053 -1.332644
21.362933 -0.888989
21.366939 -0.043549
21.370933  1.031721
21.374931  2.015831
21.378933  2.595749
21.382937  2.628867
21.387184  2.180367
21.390929  1.433425
21.394931  0.587431
21.399135 -0.187379
21.403033 -0.769779
21.406917 -1.111685
21.410987 -1.243864
21.414931 -1.242944
21.418930 -1.181566
21.422930 -1.099544
21.426940 -1.009650
21.430930 -0.918476
21.434930 -0.835617
21.438944 -0.766662
21.442934 -0.706957
21.446940 -0.648021
21.450936 -0.588516
21.454924 -0.536520
21.458938 -0.502225
21.462930 -0.489569
21.466930 -0.493654
21.470944 -0.504448
21.474934 -0.512876
21.478932 -0.514978
21.482940 -0.51232121.486942 -0.358495
21.490927 -0.334984
21.494940 -0.315754
21.498940 -0.308391
21.502915 -0.318557
21.506906 -0.343314
21.510903 -0.372617
21.514931 -0.395640
21.518922 -0.404332
21.522928 -0.393851
21.526922 -0.363628
21.530944 -0.320528
21.534928 -0.280679
21.538932 -0.264326
21.542940 -0.284616
21.546941 -0.339904
21.550936 -0.416237
21.554932 -0.496377
21.558939 -0.568069
21.562934 -0.627515
21.566926 -0.677595
21.570932 -0.723679
21.574939 -0.771758
21.578934 -0.830152
21.582926 -0.909445
21.586940 -1.015041
21.590932 -1.136514
21.594930 -1.247377
21.598924 -1.323337
21.602930 -1.366326
21.606925 -1.408208
21.610938 -1.484684
21.614925 -1.603231
21.619052 -1.737641
21.622926 -1.851040
21.626932 -1.919583
21.630924 -1.937756
21.634938 -1.911897
21.638924 -1.854127
21.642930 -1.778279
21.646924 -1.694344
21.650930 -1.602494
21.654932 -1.493415
21.658930 -1.358632
21.662924 -1.201281
21.666930 -1.032989
21.670939 -0.860198
21.674934 -0.678909
21.678926 -0.485086
21.682933 -0.287071
21.687068 -0.104938
21.690934  0.043018
21.694927  0.153174
21.699005  0.237116
21.702929  0.312310
21.706932  0.392710
21.710932  0.483068
21.714934  0.576921
21.718926  0.659674
21.722932  0.716555
21.726926  0.742723
21.730937  0.749832
21.734928  0.760655
21.738932  0.791460
21.742926  0.837704
21.746932  0.879728
21.750937  0.903534
21.754943  0.913762
21.758920  0.926006
21.762932  0.949928
21.766924  0.981641
21.770924  1.008797
21.774936  1.019422
21.778933  1.009246
21.783042  0.986217
21.786940  0.966388
21.790925  0.960174
21.794938  0.963199
21.799100  0.963348
21.802940  0.954109
21.806930  0.937629
21.810926  0.917456
21.814939  0.894710
21.818934  0.872330
21.822927  0.856354
21.826940  0.849536
21.830928  0.847855
21.834940  0.844916
21.838929  0.836461
21.842932  0.820341
21.846925  0.796377
21.850929  0.768685
21.854931  0.745077
21.858939  0.730066
21.862926  0.719839
21.867056  0.707788
21.870931  0.692591
21.874932  0.676455
21.878924  0.657859
21.882944  0.631208
21.886930  0.594784
21.890932  0.556609
21.894939  0.529101
21.898933  0.516492
21.902934  0.509256
21.906941  0.492863
21.910925  0.462533
21.914933  0.429481
21.918925  0.412026
21.922933  0.419599
21.926933  0.445696
21.930940  0.476632
21.934926  0.504592
21.938940  0.528631
21.942934  0.544522
21.946933  0.541392
21.950937  0.513838
21.954934  0.473712
21.958936  0.443179
21.962913  0.435620
21.966914  0.446411
21.970936  0.460530
21.974922  0.464147
21.978928  0.449671
21.982930  0.417047
21.986928  0.375117
21.990922  0.339342
21.994942  0.323447
21.998926  0.330859
22.003106  0.353755
22.006927  0.380954
22.010934  0.406698
22.014934  0.430456
22.018940  0.449471
22.022926  0.455507
22.026940  0.440150
22.030926  0.402259
22.034933  0.350375
22.038926  0.298239
22.042932  0.257804
22.046934  0.234604
22.050932  0.225329
22.054934  0.218878
22.058945  0.204544
22.062934  0.181683
22.066940  0.160270
22.070934  0.152430
22.074931  0.163109
22.078927  0.186027
22.082939  0.207772
22.087063  0.217228
22.090937  0.212800
22.094908  0.203827
22.098933  0.204487
22.102928  0.221334
22.106931  0.249757
22.110930  0.287559
22.114933  0.343304
22.118936  0.422679
22.122941  0.513132
22.126927  0.590137
22.130939  0.637712
22.134927  0.661014
22.138931  0.680391
22.142938  0.712523
22.146936  0.753045
22.151137  0.775255
22.154938  0.749452
22.158924  0.669627
22.162931  0.562940
22.166924  0.470079
22.170930  0.413236
22.174932  0.381324
22.178930  0.344032
22.182924  0.278307
22.186930  0.182862
22.190927  0.073634
22.194937 -0.028326
22.199061 -0.106031
22.202930 -0.151449
22.206941 -0.165722
22.210981 -0.154705
22.214935 -0.125806
22.218942 -0.090750
22.222934 -0.067170
22.226932 -0.069251
22.230932 -0.093418
22.234941 -0.118990
22.238932 -0.131964
22.242932 -0.150718
22.246944 -0.220547
22.250934 -0.373994
22.254932 -0.599895
22.258932 -0.861546
22.262933 -1.137818
22.267036 -1.417488
22.270938 -1.636454
22.275134 -1.639808
22.278931 -1.244556
22.282945 -0.379188
22.286936  0.804701
22.290933  1.954656
22.294940  2.692984
22.298932  2.826065
22.302940  2.418013
22.306992  1.692247
22.310932  0.883068
22.314939  0.154384
22.318932 -0.407813
22.322939 -0.778681
22.326940 -0.978563
22.330932 -1.054096
22.334932 -1.055795
22.338932 -1.021275
22.342932 -0.970404
22.346940 -0.909968
22.350932 -0.841449
22.354932 -0.768374
22.358940 -0.700939
22.362915 -0.652696
22.366914 -0.628099
22.370987 -0.612780
22.374940 -0.581973
22.378914 -0.524692
22.383184 -0.459055
22.386934 -0.419489
22.390980 -0.428403
22.394933 -0.479882
22.398912 -0.545652
22.402934 -0.594664
22.406980 -0.611271
22.410912 -0.600644
22.414940 -0.582159
22.418930 -0.576677
22.422912 -0.590863
22.426985 -0.608889
22.430943 -0.605073
22.434929 -0.568876
22.438931 -0.515768
22.442929 -0.474577
22.446932 -0.466115
22.450937 -0.490206
22.454931 -0.528753
22.458937 -0.562109
22.462934 -0.585412
22.466920 -0.610361
22.470944 -0.651824
22.474922 -0.713047
22.478937 -0.782798
22.482931 -0.845651
22.486930 -0.895715
22.490931 -0.942065
22.494937 -1.001354
22.498931 -1.084065
22.502930 -1.186035
22.506938 -1.292540
22.510930 -1.391722
22.515184 -1.483936
22.518938 -1.576446
22.522931 -1.671119
22.526937 -1.762213
22.530931 -1.845297
22.534937 -1.920753
22.538944 -1.985417
22.542934 -2.027345
22.547067 -2.036194
22.550934 -2.017389
22.555011 -1.988157
22.558931 -1.957174
22.562937 -1.916106
22.566931 -1.857771
22.570930 -1.795001
22.574931 -1.742540
22.578929 -1.673408
22.583020 -1.521429
22.586931 -1.256749
22.590930 -0.938537
22.594938 -0.663348
22.598930 -0.478356
22.602932 -0.361137
22.606931 -0.261019
22.610938 -0.143349
22.614938 -0.007425
22.618930  0.122341
22.622930  0.220646
22.626930  0.281692
22.630938  0.320100
22.634930  0.355299
22.638931  0.397026
22.642930  0.443228
22.646930  0.486766
22.650938  0.523313
22.654930  0.554097
22.658930  0.580155
22.662930  0.596102
22.666930  0.595940
22.670938  0.585399
22.674930  0.581234
22.678932  0.594747
22.682934  0.619755
22.686934  0.639457
22.690940  0.643595
22.694912  0.637394
22.698938  0.633441
22.702935  0.636066
22.706938  0.637826
22.711071  0.631435
22.714943  0.618351
22.718935  0.604136
22.722931  0.590772
22.726941  0.575374
22.730932  0.555818
22.734934  0.537563
22.739062  0.531484
22.742935  0.541871
22.746927  0.559672
22.750940  0.570283
22.754939  0.565538
22.758933  0.548521
22.762940  0.531077
22.766933  0.525870
22.770931  0.535794
22.774933  0.549927
22.778942  0.551834
22.782941  0.533145
22.787228  0.500104
22.790929  0.468046
22.794931  0.449739
22.798937  0.447822
22.802931  0.455099
22.806929  0.459212
22.810931  0.448998
22.814937  0.421635
22.819255  0.385997
22.822932  0.356710
22.826930  0.342636
22.830943  0.341421
22.834936  0.344630
22.838934  0.345778
22.842943  0.343254
22.846943  0.338636
22.850933  0.334872
22.854939  0.335657
22.858933  0.344227
22.862931  0.360792
22.866933  0.380635
22.870945  0.395247
22.874935  0.396124
22.878932  0.378803
22.882944  0.345357
22.886934  0.304301
22.890942  0.266875
22.894926  0.241471
22.898924  0.231190
22.902938  0.236147
22.906930  0.255818
22.910930  0.286860
22.914930  0.319402
22.918938  0.339919
22.922938  0.341343
22.926932  0.329060
22.930930  0.314918
22.934930  0.306931
22.938930  0.305471
22.942944  0.306562
22.946943  0.307078
22.950934  0.308004
22.954933  0.313337
22.958944  0.324150
22.962941  0.332834
22.966933  0.326150
22.970939  0.297953
22.974940  0.258462
22.978931  0.227232
22.982936  0.216142
22.986928  0.221468
22.990939  0.232020
22.994937  0.242059
22.998938  0.256655
23.002938  0.287390
23.007069  0.343528
23.010932  0.424923
23.014933  0.521075
23.018942  0.618889
23.022942  0.714983
23.027138  0.816518
23.030926  0.923319
23.034942  1.014881
23.038934  1.064358
23.042932  1.061109
23.046944  1.013713
23.050936  0.939114
23.054934  0.857119
23.058945  0.787445
23.062941  0.738383
23.066933  0.696988
23.070945  0.638319
23.074944  0.548562
23.078932  0.438681
23.082932  0.335697
23.086945  0.262477
23.090936  0.225876
23.094932  0.219836
23.098944  0.233619
23.102936  0.254821
23.106932  0.268353
23.110932  0.259441
23.114932  0.222466
23.118940  0.167070
23.122940  0.113087
23.126932  0.077545
23.130941  0.065224
23.134939  0.068320
23.138930  0.069591
23.142930  0.044951
23.146930 -0.028467
23.150930 -0.158852
23.154937 -0.339129
23.158930 -0.566446
23.162931 -0.847476
23.166930 -1.155106
23.170930 -1.371939
23.174938 -1.301232
23.178930 -0.770643
23.182930  0.233849
23.186930  1.498995
23.190930  2.648186
23.194939  3.323464
23.198930  3.362805
23.202930  2.842101
23.206930  1.983657
23.210930  1.037967
23.214938  0.210145
23.218930 -0.374582
23.223075 -0.684134
23.226935 -0.767030
23.230931 -0.712964
23.234933 -0.606854
23.238932 -0.501169
23.242940 -0.414507
23.246931 -0.345463
23.250933 -0.287273
23.254932 -0.237945
23.258944 -0.203932
23.262934 -0.193198
23.266932 -0.201915
23.270933 -0.210654
23.274940 -0.198717
23.278932 -0.163170
23.282930 -0.121124
23.286966 -0.093059
23.290936 -0.086064
23.294912 -0.092029
23.298908 -0.097757
23.303279 -0.095449
23.306937 -0.085741
23.311175 -0.073291
23.314935 -0.060851
23.318931 -0.047819
23.322934 -0.033847
23.326941 -0.022920
23.331871 -0.022600
23.334929 -0.037714
23.338942 -0.064667
23.342934 -0.093427
23.346932 -0.115073
23.350939 -0.125979
23.354932 -0.125574
23.358939 -0.113600
23.362945 -0.092275
23.366944 -0.071173
23.370932 -0.067172
23.374939 -0.095564
23.378940 -0.159421
23.382934 -0.248566
23.386932 -0.348150
23.390932 -0.445791
23.394932 -0.532698
23.398940 -0.605435
23.402939 -0.670217
23.406933 -0.740191
23.410939 -0.822239
23.414933 -0.907875
23.418931 -0.982153
23.423053 -1.041323
23.426931 -1.097454
23.430938 -1.164911
23.434938 -1.245001
23.438931 -1.323003
23.442930 -1.375635
23.446931 -1.382010
23.450930 -1.335025
23.454938 -1.247927
23.458930 -1.148024
23.462930 -1.058248
23.466930 -0.980037
23.470930 -0.891657
23.474937 -0.763940
23.478930 -0.582905
23.482939 -0.36366223.486940  0.180780
23.490930  0.303384
23.495102  0.421308
23.498934  0.535493
23.503140  0.652856
23.506938  0.779906
23.510930  0.915169
23.514930  1.047774
23.518930  1.163196
23.522943  1.251934
23.526934  1.315832
23.530939  1.367005
23.534931  1.418599
23.539375  1.474036
23.542933  1.523898
23.546932  1.554846
23.550933  1.565005
23.554939  1.571101
23.558935  1.596791
23.562931  1.650189
23.566933  1.711570
23.570942  1.744320
23.574934  1.722072
23.578932  1.649567
23.582994  1.557901
23.586914  1.479263
23.590984  1.427252
23.594938  1.399746
23.599056  1.393248
23.602966  1.405676
23.606920  1.424738
23.610930  1.425869
23.614931  1.393119
23.618937  1.338787
23.622939  1.293813
23.627240  1.279442
23.630931  1.294021
23.634937  1.325149
23.638940  1.363716
23.642931  1.401370
23.646938  1.422393
23.650942  1.407344
23.654914  1.347316
23.658912  1.254254
23.662910  1.155637
23.666931  1.077379
23.671009  1.032014
23.675060  1.018518
23.678929  1.023762
23.682926  1.025323
23.686944  1.004920
23.690934  0.964424
23.694932  0.925219
23.698944  0.908744
23.702935  0.917265
23.706932  0.934125
23.710933  0.941309
23.714931  0.934319
23.718933  0.921358
23.722940  0.913128
23.726933  0.916093
23.730932  0.931698
23.735072  0.954961
23.738941  0.971949
23.742932  0.964702
23.747066  0.925104
23.750934  0.864401
23.754932  0.805838
23.758939  0.765313
23.762934  0.739238
23.766932  0.712908
23.770945  0.678970
23.775060  0.643147
23.778934  0.614139
23.782931  0.595664
23.786933  0.589319
23.790931  0.598784
23.794941  0.626451
23.798940  0.665973
23.802944  0.700851
23.806934  0.713318
23.810939  0.696744
23.814936  0.660915
23.818930  0.624722
23.822931  0.600564
23.826940  0.584219
23.830942  0.561928
23.834933  0.527786
23.838942  0.490889
23.843068  0.464771
23.846934  0.452928
23.850939  0.446209
23.855094  0.433757
23.858928  0.416526
23.862942  0.410341
23.866930  0.434539
23.870940  0.495212
23.874932  0.577510
23.878933  0.654886
23.882940  0.709643
23.886934  0.747129
23.890929  0.788035
23.894907  0.846225
23.898956  0.915673
23.902935  0.975861
23.906928  1.005869
23.910940  0.995904
23.914940  0.950474
23.918930  0.882819
23.922930  0.805877
23.926930  0.726719
23.930938  0.647332
23.934931  0.568837
23.938931  0.494009
23.942938  0.425910
23.946938  0.365176
23.950938  0.309810
23.954930  0.257256
23.958930  0.205569
23.962944  0.154178
23.966934  0.105438
23.970932  0.062692
23.974932  0.024219
23.978940 -0.017479
23.982932 -0.066400
23.986933 -0.113351
23.990932 -0.137140
23.994932 -0.118998
23.998940 -0.063838
24.002932 -0.012038
24.007074 -0.022482
24.010935 -0.130153
24.014920 -0.317828
24.018934 -0.540566
24.022940 -0.780284
24.026932 -1.054750
24.030933 -1.350638
24.034932 -1.553362
24.038932 -1.469376
24.042940 -0.947890
24.046933 -0.015241
24.051105  1.085112
24.054932  1.999405
24.058940  2.454326
24.062939  2.381554
24.066932  1.892468
24.070945  1.170782
24.074934  0.391743
24.078940 -0.304017
24.082940 -0.817764
24.086932 -1.106699
24.090933 -1.192306
24.094944 -1.142958
24.098934 -1.038142
24.102940 -0.938422
24.106940 -0.872547
24.111123 -0.838745
24.114940 -0.817407
24.118930 -0.790829
24.122930 -0.756377
24.126944 -0.721760
24.130934 -0.690282
24.134932 -0.655217
24.138932 -0.609706
24.142945 -0.559269
24.146942 -0.520568
24.150940 -0.505284
24.154940 -0.506938
24.159104 -0.508180
24.162930 -0.500516
24.166946 -0.491611
24.170934 -0.493266
24.174932 -0.507824
24.178931 -0.528223
24.182935 -0.547596
24.186938 -0.565546
24.190938 -0.586847
24.194938 -0.617080
24.198938 -0.657836
24.203061 -0.703602
24.206941 -0.744639
24.210914 -0.773412
24.214936 -0.786791
24.218930 -0.784315
24.222930 -0.769014
24.226945 -0.750672
24.230941 -0.745509
24.234940 -0.770047
24.238933 -0.832688
24.242941 -0.928308
24.247071 -1.040198
24.250932 -1.149074
24.254934 -1.242385
24.258942 -1.317522
24.262932 -1.380383
24.266932 -1.443748
24.270932 -1.523973
24.274932 -1.631784
24.278940 -1.761043
24.283055 -1.887690
24.286933 -1.984941
24.290939 -2.043421
24.294933 -2.076662
24.298940 -2.105916
24.302984 -2.140565
24.306936 -2.173577
24.310930 -2.190716
24.315028 -2.178939
24.318928 -2.129480
24.323179 -2.040591
24.326930 -1.919725
24.330924 -1.781030
24.334930 -1.638754
24.338924 -1.500444
24.342938 -1.362657
24.346930 -1.212191
24.350938 -1.035433
24.355209 -0.831406
24.359371 -0.616806
24.362930 -0.416963
24.366931 -0.250135
24.370930 -0.117872
24.374930 -0.007772
24.378938  0.094463
24.382930  0.193016
24.386938  0.280094
24.390938  0.346299
24.394930  0.392587
24.398930  0.431354
24.402930  0.476572
24.406930  0.533573
24.410939  0.597059
24.414930  0.656967
24.418932  0.706499
24.422930  0.746304
24.426930  0.781262
24.430938  0.813551
24.434930  0.840515
24.438930  0.859053
24.442932  0.869648
24.446944  0.875174
24.450934  0.876410
24.454938  0.869409
24.458945  0.848533
24.462940  0.813656
24.466932  0.774482
24.470932  0.746054
24.474932  0.738253
24.478933  0.748378
24.482934  0.762097
24.486924  0.761339
24.490936  0.735285
24.494913  0.689036
24.499176  0.642249
24.503059  0.615359
24.506979  0.614492
24.510927  0.629913
24.514972  0.647647
24.518943  0.660045
24.522930  0.665516
24.526932  0.661748
24.530938  0.643844
24.534930  0.611276
24.538945  0.573395
24.542935  0.543316
24.546932  0.526840
24.550932  0.520428
24.554945  0.518536
24.558934  0.518419
24.563103  0.517033
24.566930  0.507691
24.570930  0.484889
24.574938  0.452799
24.578930  0.426052
24.582930  0.421510
24.586931  0.449744
24.590932  0.510365
24.594939  0.589349
24.598933  0.660040
24.602929  0.692975
24.606931  0.673037
24.610940  0.611731
24.614933  0.542276
24.618931  0.498101
24.622944  0.489565
24.626944  0.498703
24.631098  0.499306
24.634932  0.483659
24.638938  0.467926
24.642938  0.472614
24.646932  0.501360
24.650930  0.538768
24.654931  0.566062
24.658932  0.577084
24.662938  0.579590
24.666930  0.583244
24.670930  0.588125
24.674945  0.584787
24.678934  0.565082
24.682932  0.532700
24.686945  0.502056
24.690934  0.486229
24.694932  0.486264
24.698934  0.490974
24.702944  0.485468
24.706934  0.461683
24.710932  0.424213
24.714940  0.386805
24.718940  0.362386
24.722932  0.356329
24.726945  0.367522
24.730934  0.391750
24.734932  0.421412
24.738944  0.444372
24.742944  0.449964
24.746932  0.441571
24.750932  0.441432
24.754932  0.476871
24.759067  0.558357
24.762940  0.670568
24.766932  0.784598
24.771067  0.879126
24.774932  0.951538
24.779321  1.011285
24.782938  1.064665
24.786909  1.105804
24.791061  1.119566
24.794929  1.092142
24.798923  1.022634
24.802980  0.928459
24.806935  0.838724
24.810939  0.777697
24.814929  0.748138
24.818945  0.726334
24.822936  0.676873
24.826940  0.580767
24.830940  0.453456
24.834940  0.333811
24.838926  0.254658
24.842942  0.224883
24.846934  0.234783
24.850942  0.268296
24.854934  0.308289
24.858940  0.338480
24.862940  0.346877
24.867169  0.328660
24.871142  0.286591
24.874946  0.230264
24.878944  0.174875
24.882934  0.135836
24.886932  0.116003
24.890932  0.094806
24.894942  0.036565
24.898940 -0.083973
24.902935 -0.268316
24.906931 -0.508864
24.910930 -0.798287
24.914930 -1.096941
24.918930 -1.289761
24.922939 -1.204229
24.926911 -0.704093
24.930932  0.202289
24.934991  1.314373
24.938937  2.301600
24.942940  2.863490
24.946929  2.880382
24.950931  2.434436
24.954938  1.710613
24.958931  0.894277
24.962929  0.134278
24.966940 -0.458567
24.970930 -0.823004
24.974940 -0.963532
24.978931 -0.941780
24.982930 -0.840730
24.986930 -0.726668
24.990930 -0.630803
24.994938 -0.554873
24.998932 -0.489126
25.002930 -0.425956
25.006930 -0.361918
25.010930 -0.294012
25.014938 -0.219896
25.018930 -0.143723
25.022930 -0.078906
25.026930 -0.039656
25.030942 -0.026415
25.034926 -0.021307
25.038937 -0.004120
25.042931  0.023353
25.046942  0.034267
25.051053  0.004836
25.055041 -0.058991
25.058938 -0.129012
25.062930 -0.183044
25.066938 -0.219284
25.070930 -0.247369
25.075188 -0.273123
25.078930 -0.293629
25.082930 -0.303282
25.086930 -0.301371
25.090930 -0.293971
25.094938 -0.290045
25.098930 -0.296779
25.102937 -0.317469
25.106931 -0.350514
25.110929 -0.389827
25.114939 -0.429401
25.118930 -0.468184
25.122931 -0.507446
25.126929 -0.543293
25.130933 -0.566761
25.134942 -0.576020
25.138936 -0.587950
25.143103 -0.631451
25.146935 -0.724132
25.150932 -0.858257
25.154938 -1.011918
25.158938 -1.167894
25.162932 -1.318510
25.166932 -1.458881
25.170938 -1.581698
25.174938 -1.679603
25.178932 -1.751774
25.182932 -1.805361
25.186932 -1.847595
25.190935 -1.877363
25.194936 -1.885700
25.198932 -1.863078
25.202932 -1.805337
25.206932 -1.714238
25.210935 -1.597003
25.215127 -1.470321
25.218929 -1.360783
25.222944 -1.289289
25.226934 -1.250601
25.230942 -1.214263
25.234932 -1.148849
25.238932 -1.043719
25.242932 -0.908915
25.246940 -0.758936
25.250932 -0.599838
25.254932 -0.432599
25.258933 -0.266150
25.262932 -0.120622
25.266940 -0.012940
25.271065  0.059951
25.274940  0.120329
25.278932  0.190369
25.282936  0.272129
25.286938  0.345430
25.290938  0.385658
25.294930  0.384394
25.298932  0.354426
25.302945  0.318612
25.306934  0.295287
25.310932  0.288580
25.314944  0.285054
25.318934  0.260305
25.322940  0.199947
25.326931  0.122705
25.330931  0.073437
25.334937  0.080258
25.338939  0.127622
25.343059  0.183385
25.347101  0.239337
25.350929  0.312381
25.354939  0.414706
25.358929  0.530768
25.362937  0.618172
25.366938  0.629381
25.370939  0.545807
25.374938  0.403832
25.378970  0.279797
25.382917  0.230240
25.387082  0.243803
25.390987  0.261664
25.394939  0.242946
25.398939  0.199302
25.402933  0.167962
25.406937  0.166325
25.410937  0.180998
25.414941  0.191893
25.418931  0.194201
25.422933  0.197515
25.426944  0.213145
25.430934  0.245387
25.434932  0.288756
25.438932  0.328416
25.442932  0.346294
25.446940  0.332994
25.450932  0.296847
25.454932  0.260758
25.458932  0.246754
25.462932  0.258903
25.466940  0.279564
25.470932  0.283834
25.474933  0.258761
25.478938  0.208887
25.482931  0.14683425.486943  0.126922
25.490942  0.174650
25.494932  0.212958
25.498940  0.240777
25.502940  0.263065
25.506932  0.281314
25.510932  0.289421
25.515108  0.280463
25.519056  0.256233
25.522934  0.227273
25.526932  0.202414
25.530933  0.180227
25.534940  0.152540
25.538939  0.114300
25.542933  0.066352
25.546942  0.009098
25.550933 -0.061677
25.554936 -0.148608
25.558940 -0.242103
25.562930 -0.318210
25.566930 -0.351046
25.570930 -0.333094
25.575103 -0.286423
25.578942 -0.249903
25.582942 -0.248890
25.587030 -0.275291
25.590928 -0.297626
25.594942 -0.289482
25.598934 -0.247753
25.602932 -0.187334
25.606932 -0.124332
25.610932 -0.065310
25.614946 -0.007171
25.618945  0.056795
25.622932  0.129320
25.626940  0.204651
25.630940  0.270492
25.634932  0.315729
25.638933  0.339784
25.642932  0.356898
25.646932  0.390207
25.650944  0.458377
25.655017  0.563849
25.659059  0.690287
25.662932  0.811558
25.666940  0.908357
25.670932  0.981505
25.674932  1.049918
25.678945  1.131069
25.682937  1.218267
25.686930  1.277845
25.690938  1.273206
25.694914  1.194203
25.698950  1.065783
25.702922  0.931629
25.707066  0.827127
25.710917  0.759694
25.714940  0.711279
25.718927  0.661752
25.722925  0.606835
25.726932  0.552383
25.730938  0.503568
25.734931  0.467128
25.738937  0.454148
25.742931  0.471812
25.746931  0.514896
25.750931  0.567714
25.754929  0.612086
25.758944  0.632934
25.762934  0.621428
25.766932  0.580062
25.770944  0.525106
25.774934  0.474441
25.778932  0.424544
25.783070  0.343730
25.786935  0.199289
25.790931 -0.006264
25.794933 -0.236289
25.799076 -0.463366
25.802939 -0.693124
25.806925 -0.915486
25.810936 -1.032047
25.814933 -0.866126
25.818931 -0.282918
25.822938  0.669655
25.826939  1.722126
25.830933  2.504936
25.834932  2.758193
25.838932  2.462420
25.842936  1.794075
25.846936  0.983547
25.850932  0.212568
25.854932 -0.407296
25.859101 -0.821675
25.862962 -1.025048
25.866936 -1.055074
25.870940 -0.977883
25.874932 -0.865072
25.878939 -0.770197
25.882933 -0.712838
25.886939 -0.679377
25.891166 -0.643773
25.895197 -0.593928
25.898941 -0.539856
25.903189 -0.497455
25.906929 -0.468802
25.910931 -0.442439
25.914929 -0.409691
25.918931 -0.372550
25.922937 -0.334365
25.926933 -0.290416
25.930930 -0.232889
25.934931 -0.163655
25.938944 -0.099496
25.942934 -0.063400
25.946932 -0.069076
25.950932 -0.111562
25.954941 -0.170554
25.958932 -0.222717
25.962932 -0.254429
25.966932 -0.266961
25.970932 -0.271137
25.974940 -0.277463
25.978950 -0.290503
25.982934 -0.309272
25.986937 -0.331553
25.991058 -0.361116
25.994936 -0.411711
25.998954 -0.499214
26.002937 -0.625611
26.006930 -0.769751
26.010937 -0.895341
26.014933 -0.974514
26.019065 -1.009564
26.022984 -1.028597
26.026989 -1.058736
26.030936 -1.109903
26.034929 -1.179993
26.038931 -1.261603
26.042937 -1.344342
26.046931 -1.422455
26.050929 -1.502764
26.055106 -1.600351
26.058929 -1.723588
26.062941 -1.862098
26.066936 -1.990941
26.070930 -2.091067
26.074938 -2.166143
26.078930 -2.234653
26.082930 -2.303980
26.086938 -2.357373
26.090940 -2.369597
26.094932 -2.330100
26.099365 -2.245687
26.102978 -2.125071
26.106936 -1.968600
26.110927 -1.774758
26.114930 -1.553326
26.118927 -1.327639
26.122930 -1.120217
26.126935 -0.935240
26.130929 -0.757116
26.134927 -0.568200
26.138929 -0.366926
26.142927 -0.168303
26.146937  0.007515
26.150927  0.143178
26.154929  0.228866
26.158927  0.270443
26.162931  0.293370
26.167061  0.330708
26.170929  0.401969
26.174927  0.502946
26.178929  0.613917
26.182927  0.713562
26.186937  0.786868
26.190927  0.828257
26.194939  0.841969
26.198929  0.837804
26.202913  0.825457
26.206910  0.812711
26.210938  0.804496
26.214928  0.799166
26.218912  0.789244
26.222908  0.770859
26.226910  0.749732
26.230908  0.734728
26.235157  0.728125
26.238930  0.724512
26.242932  0.719220
26.246938  0.717388
26.250930  0.732070
26.254938  0.769521
26.258938  0.816371
26.262930  0.845603
26.266930  0.837743
26.270938  0.795255
26.274932  0.736956
26.279211  0.682495
26.282934  0.644721
26.287074  0.632544
26.290965  0.649782
26.295065  0.683919
26.298938  0.703811
26.303042  0.681979
26.306936  0.620600
26.310983  0.549119
26.315038  0.498026
26.318934  0.479118
26.323084  0.484539
26.326934  0.495635
26.330933  0.494394
26.335010  0.475455
26.338937  0.451570
26.342936  0.444027
26.346933  0.464092
26.350932  0.502562
26.354932  0.535310
26.358932  0.539480
26.362940  0.508430
26.366932  0.453906
26.371050  0.395391
26.374932  0.348073
26.378941  0.319261
26.382940  0.312316
26.386932  0.328646
26.390934  0.362701
26.394932  0.399015
26.398939  0.422224
26.403248  0.431970
26.406930  0.442409
26.410930  0.463810
26.414930  0.488524
26.418930  0.498799
26.422938  0.485160
26.426930  0.452022
26.430930  0.408383
26.434930  0.361256
26.438930  0.318734
26.442938  0.291643
26.446930  0.286540
26.450930  0.297421
26.454931  0.307350
26.458930  0.303344
26.462937  0.293674
26.466930  0.306917
26.470930  0.366133
26.474930  0.462495
26.478930  0.559854
26.482938  0.627830
26.486930  0.666968
26.490930  0.700453
26.494930  0.746503
26.498930  0.802599
26.502942  0.853065
26.506940  0.885143
26.510932  0.894178
26.514940  0.876775
26.518932  0.827370
26.522932  0.746219
26.526932  0.647272
26.530932  0.553660
26.534940  0.485153
26.538932  0.448471
26.542932  0.434490
26.546935  0.422595
26.550944  0.391215
26.554931  0.328844
26.558938  0.238625
26.562931  0.135325
26.567105  0.037686
26.570931 -0.040783
26.574928 -0.098029
26.578912 -0.141725
26.582936 -0.179704
26.586993 -0.210333
26.591012 -0.223647
26.594979 -0.214639
26.598933 -0.195423
26.602935 -0.193433
26.606932 -0.237424
26.610907 -0.341354
26.614932 -0.494456
26.618937 -0.664885
26.622938 -0.822935
26.626930 -0.971874
26.630932 -1.147291
26.634929 -1.360417
26.638931 -1.529089
26.642930 -1.478945
26.646938 -1.044239
26.650938 -0.207576
26.654910  0.829598
26.658938  1.725122
26.662931  2.186137
26.666929  2.117045
26.671179  1.613431
26.674934  0.856104
26.678932  0.026815
26.682932 -0.718630
26.686940 -1.264359
26.690934 -1.561341
26.694932 -1.640289
26.698932 -1.582284
26.702932 -1.465669
26.706942 -1.335087
26.710935 -1.209875
26.714931 -1.104404
26.718933 -1.029343
26.722931 -0.977712
26.726940 -0.923549
26.730931 -0.844485
26.734934 -0.745854
26.738932 -0.658325
26.742933 -0.610806
26.746939 -0.606898
26.750933 -0.625440
26.754933 -0.638853
26.758933 -0.630638
26.762932 -0.601311
26.766941 -0.562647
26.770939 -0.526736
26.775063 -0.499719
26.778931 -0.483837
26.782945 -0.480446
26.786944 -0.489060
26.790932 -0.507954
26.794932 -0.537872
26.798932 -0.579720
26.802933 -0.624886
26.807062 -0.653689
26.810935 -0.652216
26.815056 -0.631017
26.818943 -0.620113
26.822932 -0.642710
26.826932 -0.697250
26.830932 -0.765392
26.834942 -0.832194
26.838932 -0.896004
26.842939 -0.964070
26.846934 -1.044677
26.850945 -1.141992
26.854934 -1.252265
26.858932 -1.363203
26.862933 -1.461369
26.866932 -1.544504
26.870940 -1.626311
26.874932 -1.725379
26.878931 -1.846709
26.883063 -1.976731
26.886934 -2.100042
26.890910 -2.216371
26.894907 -2.335027
26.898929 -2.456023
26.902934 -2.561873
26.906965 -2.629051
26.910942 -2.649283
26.915204 -2.638351
26.918937 -2.618074
26.922930 -2.588401
26.926930 -2.522833
26.930930 -2.395595
26.934930 -2.211724
26.938938 -2.006595
26.942930 -1.816105
26.946930 -1.650611
26.950930 -1.496109
26.954932 -1.332345
26.958938 -1.145784
26.962930 -0.933738
26.966930 -0.707765
26.970930 -0.493342
26.974932 -0.317248
26.978937 -0.189346
26.982930 -0.096544
26.986930 -0.016460
26.990930  0.061400
26.994932  0.128500
26.998938  0.172207
27.002930  0.195746
27.006930  0.220553
27.010930  0.269676
27.014939  0.349788
27.018943  0.446744
27.022934  0.535940
27.026932  0.597562
27.030940  0.624419
27.034932  0.620336
27.038932  0.596972
27.042932  0.570650
27.046932  0.554384
27.050940  0.549255
27.054933  0.545493
27.058932  0.534047
27.062939  0.517181
27.066933  0.505538
27.070939  0.503518
27.074934  0.502021
27.079108  0.490989
27.082931  0.476655
27.086932  0.478829
27.090940  0.508078
27.094932  0.549637
27.098932  0.574853
27.102932  0.568497
27.106932  0.541773
27.110940  0.518487
27.114940  0.511520
27.118933  0.513242
27.122940  0.505569
27.126932  0.477255
27.130930  0.432275
27.134931  0.383503
27.138929  0.341598
27.142931  0.312109
27.146937  0.298687
27.150931  0.301246
27.154930  0.311234
27.158933  0.316239
27.162930  0.310489
27.166937  0.294426
27.170930  0.263921
27.174942  0.210405
27.178933  0.138716
27.182939  0.076740
27.186938  0.055349
27.190914  0.080350
27.194931  0.129457
27.198940  0.171917
27.202938  0.188398
27.206934  0.177742
27.210923  0.150501
27.214932  0.120132
27.218942  0.098657
27.222942  0.091804
27.226936  0.094888
27.230932  0.098425
27.234932  0.099432
27.238932  0.104558
27.242932  0.122096
27.246941  0.151524
27.250940  0.180384
27.254927  0.193898
27.258938  0.190881
27.262931  0.187867
27.266929  0.202090
27.270931  0.229897
27.274942  0.247621
27.278934  0.237489
27.282940  0.210359
27.286940  0.199507
27.290932  0.229969
27.294932  0.291752
27.299150  0.344658
27.302934  0.354448
27.306930  0.322894
27.310930  0.278561
27.314930  0.244741
27.319038  0.224243
27.322943  0.209726
27.326940  0.198078
27.330940  0.193546
27.334931  0.203425
27.338933  0.234530
27.342945  0.291526
27.346934  0.374335
27.350932  0.474716
27.354932  0.576740
27.358940  0.666222
27.362932  0.745048
27.366932  0.833873
27.370932  0.951791
27.374932  1.088259
27.378940  1.198922
27.382932  1.236657
27.386934  1.190966
27.390931  1.097141
27.395081  1.006946
27.398939  0.950246
27.402933  0.920970
27.406932  0.892426
27.410935  0.841942
27.414931  0.765559
27.418941  0.677624
27.422939  0.599441
27.427163  0.545317
27.430930  0.515084
27.434931  0.497244
27.438939  0.479457
27.442931  0.458563
27.446930  0.443558
27.450931  0.451105
27.454929  0.495911
27.458938  0.577326
27.462930  0.669863
27.466931  0.730924
27.470930  0.725401
27.474931  0.646547
27.478929  0.514453
27.482934  0.357806