3.744811  0.100740
3.748799  0.038043
3.752768 -0.035915
3.783377 -0.116212
3.786486 -0.178472
3.788741 -0.197864
3.791134 -0.173838
3.793296 -0.130656
3.795476 -0.094983
3.797876 -0.079555
3.800783 -0.085383
3.804790 -0.108619
3.808783 -0.139824
3.812783 -0.161872
3.816791 -0.158545
3.820783 -0.129235
3.824783 -0.092023
3.828782 -0.071455
3.832785 -0.085340
3.836790 -0.138033
3.840795 -0.215603
3.845217 -0.286807
3.848917 -0.320838
3.852894 -0.312570
3.856792 -0.287372
3.860836 -0.277542
3.864791 -0.294770
3.868791 -0.321203
3.872761 -0.319730
3.876860 -0.257943
3.880795 -0.134208
3.884796  0.019787
3.888787  0.166330
3.892788  0.286175
3.896786  0.376101
3.900800  0.435441
3.904928  0.463639
3.908794  0.465982
3.912847  0.451542
3.916787  0.422099
3.920786  0.369573
3.924786  0.290024
3.928793  0.195627
3.932786  0.105657
3.936787  0.027458
3.940787 -0.046311
3.944785 -0.121336
3.948794 -0.190646
3.952793 -0.243430
3.956787 -0.279115
3.960800 -0.308922
3.964790 -0.347247
3.968788 -0.402852
3.972795 -0.471931
3.976790 -0.534854
3.980797 -0.564639
3.984907 -0.546268
3.988788 -0.487950
3.992788 -0.413293
3.996788 -0.348347
4.000795 -0.315636
4.004788 -0.330595
4.008795 -0.397772
4.012788 -0.510859
4.016788 -0.658153
4.020906 -0.833637
4.024790 -1.045253
4.028788 -1.296194
4.032795 -1.535117
4.036790 -1.625153
4.040795 -1.387821
4.044798 -0.712883
4.048787  0.333745
4.053124  1.482944
4.056799  2.365971
4.060796  2.706515
4.064788  2.456852
4.068795  1.773712
4.072789  0.890871
4.076796  0.014626
4.080791 -0.711657
4.084795 -1.207929
4.088788 -1.456371
4.092800 -1.499636
4.096799 -1.422932
4.100795 -1.314667
4.104789 -1.226235
4.108795 -1.161609
4.112793 -1.102186
4.116793 -1.038486
4.120786 -0.978585
4.124800 -0.933117
4.128790 -0.901338
4.132788 -0.875514
4.136788 -0.853567
4.140795 -0.840417
4.144997 -0.838673
4.148789 -0.843777
4.152787 -0.847314
4.156777 -0.843065
4.160789 -0.832174
4.164819 -0.821004
4.168877 -0.811961
4.172877 -0.801241
4.176795 -0.786628
4.180780 -0.771871
4.184786 -0.762932
4.188793 -0.764480
4.192786 -0.780182
4.196789 -0.809976
4.200789 -0.842076
4.204793 -0.854064
4.208809 -0.832721
4.212800 -0.791650
4.216798 -0.762177
4.220788 -0.767045
4.224788 -0.803546
4.228788 -0.848695
4.232800 -0.881020
4.236790 -0.900023
4.240788 -0.923949
4.244838 -0.968314
4.248795 -1.029580
4.252795 -1.092392
4.256789 -1.150069
4.260797 -1.211141
4.264789 -1.284626
4.268789 -1.366712
4.272800 -1.446873
4.276790 -1.522141
4.280788 -1.599320
4.284800 -1.684093
4.288961 -1.773437
4.292786 -1.861551
4.296787 -1.949146
4.300800 -2.040294
4.304790 -2.129368
4.308788 -2.197289
4.312789 -2.226553
4.316798 -2.218723
4.320790 -2.191315
4.324860 -2.155717
4.328795 -2.102959
4.332788 -2.015717
4.336788 -1.891098
4.340788 -1.744421
4.344788 -1.590430
4.348798 -1.427988
4.352788 -1.247117
4.356788 -1.046946
4.360788 -0.841191
4.364788 -0.646398
4.368796 -0.469720
4.372788 -0.310202
4.376789 -0.167730
4.380787 -0.044041
4.384789  0.066617
4.388795  0.180552
4.392789  0.309403
4.396787  0.442413
4.400789  0.552377
4.404787  0.622279
4.408796  0.660952
4.412787  0.690235
4.416925  0.722228
4.420785  0.753951
4.425016  0.780138
4.428793  0.801498
4.432787  0.817070
4.436793  0.818256
4.440787  0.802243
4.445072  0.787199
4.448789  0.799850
4.452921  0.846528
4.456784  0.904870
4.460789  0.943491
4.464762  0.946460
4.468792  0.923122
4.472769  0.897490
4.476990  0.886720
4.480786  0.889987
4.484785  0.896873
4.488795  0.900721
4.492794  0.900439
4.496793  0.893427
4.500794  0.874031
4.504785  0.841758
4.508786  0.806837
4.512785  0.781543
4.516787  0.766102
4.520797  0.749155
4.524790  0.724419
4.528787  0.701208
4.532789  0.692947
4.536787  0.698409
4.540796  0.702232
4.544795  0.694845
4.548789  0.683964
4.552795  0.681293
4.556788  0.683625
4.560787  0.676118
4.564788  0.653402
4.568787  0.628064
4.572796  0.614480
4.576787  0.610385
4.580795  0.600462
4.584795  0.576848
4.588958  0.550636
4.592788  0.539996
4.596790  0.549935
4.600788  0.568645
4.604795  0.582369
4.608788  0.587880
4.612788  0.589057
4.616789  0.586134
4.620787  0.574033
4.624797  0.552765
4.628795  0.533995
4.632782  0.529696
4.636793  0.535421
4.640787  0.534050
4.644785  0.518944
4.648786  0.505176
4.652785  0.511372
4.656794  0.535417
4.660785  0.556751
4.664787  0.561734
4.668785  0.557557
4.672788  0.557913
4.676793  0.563186
4.680787  0.562694
4.684785  0.553602
4.688787  0.548850
4.692785  0.562150
4.696794  0.589206
4.700785  0.610246
4.704787  0.611102
4.708785  0.596284
4.712787  0.579796
4.716795  0.568426
4.720787  0.558799
4.724793  0.548023
4.728787  0.538625
4.732797  0.529431
4.736787  0.510324
4.740795  0.475879
4.745000  0.438780
4.748791  0.418396
4.752794  0.418956
4.756793  0.427966
4.760792  0.433443
4.764790  0.436008
4.768794  0.444955
4.772769  0.465767
4.776787  0.493722
4.780796  0.522286
4.784789  0.556007
4.788789  0.607084
4.792788  0.674099
4.796767  0.729636
4.800770  0.742060
4.804853  0.717690
4.808795  0.709919
4.812777  0.768548
4.817267  0.885717
4.820791  1.006196
4.824778  1.082525
4.828781  1.107040
4.832864  1.096614
4.836788  1.061984
4.840789  1.000710
4.844787  0.914935
4.848785  0.822279
4.852787  0.741839
4.856787  0.674307
4.860790  0.604163
4.864784  0.522479
4.868786  0.441459
4.872786  0.382960
4.876789  0.356708
4.880790  0.354018
4.884786  0.359897
4.888786  0.365091
4.892786  0.364859
4.896789  0.351331
4.900790  0.314721
4.904785  0.254877
4.908786  0.188191
4.912786  0.138247
4.916789  0.116572
4.920790  0.110982
4.924786  0.092678
4.928918  0.036846
4.932793 -0.059998
4.936803 -0.182347
4.940786 -0.318965
4.944795 -0.480651
4.948855 -0.676972
4.952786 -0.860497
4.956793 -0.901579
4.960788 -0.640302
4.964786  0.007681
4.968785  0.958031
4.972786  1.949138
4.976787  2.656302
4.980793  2.867012
4.984780  2.577562
4.988786  1.943779
4.992786  1.161188
4.996792  0.384404
5.000797 -0.281981
5.004796 -0.763779
5.008793 -1.019462
5.012780 -1.064898
5.016794 -0.976109
5.020786 -0.846929
5.024786 -0.736967
5.028788 -0.655872
5.032798 -0.585653
5.037027 -0.509722
5.040785 -0.424755
5.044798 -0.336690
5.048798 -0.255293
5.053648 -0.192543
5.056779 -0.159146
5.060827 -0.158386
5.064794 -0.181791
5.068786 -0.209751
5.072998 -0.220953
5.076787 -0.207739
5.080789 -0.181646
5.084795 -0.160045
5.088790 -0.148360
5.092787 -0.138524
5.096789 -0.123419
5.101127 -0.107874
5.104796 -0.102620
5.108788 -0.109654
5.112790 -0.118990
5.116798 -0.121437
5.120790 -0.119360
5.124788 -0.120944
5.128790 -0.128093
5.132787 -0.137094
5.136796 -0.150869
5.140849 -0.182276
5.144788 -0.239950
5.148788 -0.314035
5.152788 -0.381711
5.156795 -0.428267
5.160788 -0.459325
5.164788 -0.491173
5.168788 -0.534773
5.172788 -0.593716
5.176800 -0.672164
5.180790 -0.774832
5.184788 -0.897305
5.188796 -1.023292
5.192797 -1.137391
5.196788 -1.239450
5.200798 -1.341518
5.204790 -1.450096
5.208788 -1.555926
5.212795 -1.643454
5.216790 -1.707215
5.220798 -1.755935
5.224796 -1.801418
5.228787 -1.846460
5.232789 -1.885282
5.236795 -1.912189
5.240788 -1.923217
5.244840 -1.908774
5.248789 -1.852499
5.252788 -1.744488
5.256788 -1.594046
5.260787 -1.423255
5.264797 -1.247494
5.268795 -1.066970
5.272789 -0.877487
5.276795 -0.683618
5.280789 -0.497218
5.284788 -0.324643
5.288789 -0.160257
5.292787  0.003932
5.296796  0.164350
5.300787  0.307296
5.304788  0.425024
5.308783  0.524721
5.312959  0.618363
5.316793  0.708276
5.320787  0.788685
5.324785  0.859297
5.328787  0.927563
5.332786  0.992468
5.336787  1.034108
5.340797  1.031683
5.344956  0.992770
5.348939  0.953761
5.352787  0.945712
5.356794  0.967063
5.360791  0.993638
5.364789  1.006750
5.368773  1.006888
5.372793  1.005041
5.376969  1.004991
5.380791  0.998198
5.384780  0.979025
5.388786  0.957995
5.392779  0.950730
5.396793  0.956407
5.400786  0.956679
5.404786  0.937544
5.408786  0.905276
5.412787  0.876733
5.416793  0.858499
5.420788  0.841643
5.424786  0.816882
5.428786  0.789291
5.432800  0.772743
5.436790  0.770330
5.440924  0.766961
5.444793  0.745480
5.448786  0.705730
5.452785  0.662246
5.456787  0.625406
5.460796  0.591283
5.464786  0.551352
5.468794  0.506696
5.472790  0.467524
5.476780  0.440489
5.480787  0.422315
5.484786  0.406962
5.488794  0.393674
5.492786  0.384002
5.496794  0.373497
5.500786  0.352157
5.504787  0.315759
5.508786  0.273455
5.512786  0.239176
5.516788  0.215917
5.520792  0.193419
5.524779  0.162670
5.528786  0.128276
5.532785  0.102454
5.536794  0.088621
5.540785  0.076931
5.544794  0.058515
5.548785  0.038757
5.552787  0.030272
5.556793  0.035312
5.560786  0.042596
5.564785  0.041495
5.568787  0.032658
5.572787  0.023044
5.576789  0.015440
5.580869  0.006585
5.584790 -0.005858
5.588795 -0.018969
5.592788 -0.030078
5.596788 -0.044724
5.600788 -0.074054
5.604788 -0.121585
5.608796 -0.175409
5.612960 -0.217994
5.616786 -0.243339
5.620874 -0.260521
5.624789 -0.280189
5.628786 -0.302184
5.632786 -0.319103
5.636786 -0.329159
5.640786 -0.341016
5.645002 -0.365174
5.648809 -0.403168
5.652791 -0.446868
5.656792 -0.486908
5.660793 -0.520049
5.664839 -0.548641
5.668791 -0.574437
5.672959 -0.595405
5.676786 -0.610325
5.680786 -0.623672
5.684787 -0.642529
5.688788 -0.670495
5.692792 -0.707001
5.696786 -0.750168
5.701090 -0.796691
5.704794 -0.838197
5.708786 -0.860191
5.712786 -0.850161
5.716786 -0.810168
5.720786 -0.756371
5.724793 -0.700844
5.728786 -0.638911
5.732786 -0.560691
5.736786 -0.470637
5.740786 -0.387942
5.744793 -0.329159
5.748786 -0.296266
5.752793 -0.280623
5.756786 -0.272433
5.760788  0.055774
5.764793 -0.060299
5.768786 -0.165688
5.772786 -0.254641
5.776786 -0.332406
5.780786 -0.412360
5.784793 -0.500625
5.788786 -0.584826
5.792786 -0.644558
5.796786 -0.674830
5.800787 -0.694175
5.804793 -0.726027
5.808786 -0.775235
5.812786 -0.827330
5.816786 -0.868701
5.820786 -0.899956
5.824968 -0.927044
5.828785 -0.946661
5.832787 -0.948620
5.836785 -0.931440
5.840800 -0.907944
5.844790 -0.892917
5.848788 -0.892218
5.852797 -0.909882
5.856792 -0.958261
5.860790 -1.047443
5.864784 -1.167100
5.868784 -1.298138
5.872791 -1.446720
5.876784 -1.638358
5.880784 -1.848678
5.884784 -1.946009
5.888784 -1.735938
5.892792 -1.100292
5.896784 -0.125864
5.900784  0.892152
5.904784  1.601616
5.908784  1.791938
5.912791  1.477305
5.916785  0.823434
5.920784  0.027948
5.924784 -0.742161
5.928785 -1.360544
5.932793 -1.751333
5.936787 -1.910216
5.940792 -1.901996
5.945041 -1.816171
5.948857 -1.714501
5.952904 -1.615743
5.957058 -1.518631
5.960791 -1.426149
5.964793 -1.345962
5.968792 -1.278926
5.972788 -1.218946
5.976791 -1.164119
5.980789 -1.119755
5.984788 -1.087140
5.988788 -1.055192
5.992788 -1.009751
5.996796 -0.951035
6.000788 -0.897301
6.004788 -0.868391
6.008788 -0.867154
6.012788 -0.879364
6.016797 -0.889860
6.020788 -0.893918
6.024787 -0.892678
6.028792 -0.884260
6.032787 -0.865537
6.036796 -0.840968
6.040789 -0.821603
6.044796 -0.811090
6.048795 -0.798623
6.053137 -0.772981
6.056797 -0.740655
6.060852 -0.722120
6.064791 -0.729496
6.068788 -0.754459
6.072788 -0.782114
6.076788 -0.812452
6.080770 -0.860804
6.084907 -0.936003
6.088852 -1.024549
6.092796 -1.102184
6.096788 -1.159362
6.100788 -1.209129
6.104788 -1.268281
6.108795 -1.336966
6.112788 -1.402740
6.116788 -1.460951
6.120788 -1.522869
6.124788 -1.602775
6.128795 -1.702080
6.132789 -1.808782
6.136787 -1.910404
6.140789 -2.002800
6.144788 -2.084960
6.148796 -2.151776
6.152787 -2.199016
6.156789 -2.232309
6.160793 -2.261973
6.164787 -2.286560
6.168793 -2.287443
6.172789 -2.244825
6.176786 -2.158370
6.180786 -2.047715
6.184786 -1.930098
6.188794 -1.800867
6.192786 -1.641979
6.196786 -1.448942
6.200788 -1.241563
6.204786 -1.044999
6.208793 -0.865981
6.212786 -0.692409
6.216786 -0.513398
6.220801 -0.333639
6.224791 -0.166078
6.228787 -0.016403
6.232788  0.117781
6.236788  0.234748
6.240795  0.325675
6.244958  0.387382
6.248795  0.431628
6.252855  0.475859
6.256788  0.526372
6.260944  0.575164
6.264796  0.613912
6.268792  0.647143
6.272782  0.687951
6.276795  0.741510
6.280788  0.797130
6.284787  0.838726
6.288789  0.860374
6.292795  0.868643
6.296794  0.872105
6.300787  0.873644
6.304790  0.873307
6.308787  0.873536
6.312796  0.877653
6.316787  0.884626
6.320788  0.889569
6.324787  0.891116
6.328790  0.895686
6.332793  0.910631
6.336961  0.932886
6.340787  0.949028
6.344796  0.949712
6.348959  0.940263
6.352788  0.932394
6.356788  0.928058
6.360789  0.917167
6.364796  0.891953
6.368796  0.858589
6.372789  0.830138
6.376789  0.810363
6.380787  0.791169
6.384789  0.767783
6.388795  0.750089
6.392788  0.751948
6.396787  0.770670
6.400790  0.784989
6.404787  0.776407
6.408914  0.747428
6.412791  0.714760
6.416788  0.688633
6.420798  0.665876
6.424788  0.643436
6.428790  0.630083
6.432871  0.636981
6.436792  0.658726
6.440786  0.672614
6.444795  0.660794
6.448788  0.628509
6.452790  0.596046
6.456800  0.575750
6.460799  0.562965
6.464924  0.549646
6.468788  0.539411
6.472849  0.542487
6.476788  0.559019
6.480787  0.576162
6.484794  0.583257
6.488793  0.583469
6.492788  0.586109
6.496791  0.590520
6.500770  0.585011
6.504786  0.564979
6.508785  0.545490
6.512785  0.547222
6.516783  0.570846
6.520792  0.593536
6.524793  0.593138
6.528786  0.568841
6.532855  0.534220
6.536772  0.497707
6.540791  0.460136
6.545063  0.428751
6.548796  0.416686
6.552794  0.416788
6.556790  0.388051
6.560882  0.294913
6.565066  0.168395
6.568842  0.100001
6.572759  0.147965
6.576796  0.268892
6.580789  0.367218
6.584787  0.392294
6.588790  0.367323
6.592798  0.342964
6.596790  0.345429
6.600788  0.367728
6.604788  0.395177
6.608795  0.425265
6.612788  0.460741
6.616795  0.492644
6.620795  0.500670
6.624795  0.473241
6.628788  0.422387
6.632795  0.373367
6.636796  0.340992
6.640788  0.322419
6.644798  0.312454
6.648790  0.315237
6.652799  0.334719
6.656787  0.360294
6.660795  0.371346
6.664800  0.357881
6.668799  0.332215
6.672794  0.316010
6.676786  0.316585
6.680798  0.321157
6.684790  0.316326
6.688788  0.307559
6.692793  0.314652
6.696788  0.350939
6.700795  0.411636
6.704800  0.482831
6.708791  0.558240
6.712789  0.642441
6.716795  0.737508
6.720788  0.832994
6.724789  0.913405
6.728788  0.971519
6.732788  1.008821
6.736796  1.024094
6.740788  1.008248
6.744788  0.954923
6.748788  0.873941
6.752788  0.787951
6.756795  0.712853
6.760788  0.645581
6.764788  0.574534
6.768788  0.497344
6.772796  0.422766
6.776789  0.358009
6.780796  0.301470
6.784783  0.249767
6.788800  0.206600
6.792791  0.178543
6.796788  0.163019
6.800788  0.147432
6.804788  0.123569
6.808796  0.098239
6.812788  0.083894
6.816788  0.080539
6.820788  0.075096
6.824788  0.060924
6.828796  0.048453
6.832795  0.046495
6.836788  0.035283
6.840785 -0.028256
6.844787 -0.167650
6.849090 -0.357485
6.852790 -0.554932
6.856785 -0.753369
6.860916 -0.970017
6.864787 -1.167058
6.869013 -1.210076
6.872786 -0.932734
6.876793 -0.263866
6.880952  0.681275
6.884794  1.621962
6.888787  2.249950
6.892793  2.391498
6.896787  2.067781
6.900793  1.429156
6.904781  0.657319
6.908785 -0.086284
6.912787 -0.678687
6.916793 -1.055000
6.920787 -1.220039
6.924785 -1.228661
6.928787 -1.146311
6.932785 -1.023254
6.936794 -0.893763
6.940785 -0.782173
6.944787 -0.700055
6.948798 -0.641353
6.952871 -0.589403
6.956786 -0.532871
6.960787 -0.473875
6.964793 -0.421082
6.968787 -0.378432
6.972795 -0.343402
6.976929 -0.315163
6.980790 -0.298861
6.985661 -0.296903
6.988789 -0.299147
6.992788 -0.289747
6.996798 -0.264717
7.000790 -0.235834
7.004788 -0.214602
7.008796 -0.198306
7.012788 -0.177043
7.016788 -0.151597
7.020788 -0.136936
7.024789 -0.145474
7.028795 -0.172618
7.032789 -0.204183
7.036787 -0.233642
7.040789 -0.263856
7.044928 -0.293486
7.048786 -0.311525
7.052837 -0.309678
7.056790 -0.296691
7.060785 -0.295699
7.064794 -0.324908
7.068785 -0.381693
7.072795 -0.448033
7.076785 -0.510279
7.080794 -0.569337
7.085018 -0.632138
7.088786 -0.700251
7.092793 -0.770988
7.096786 -0.845960
7.100786 -0.932483
7.104786 -1.033929
7.108786 -1.141751
7.112793 -1.242885
7.116786 -1.335575
7.120786 -1.431628
7.124786 -1.539194
7.128786 -1.647402
7.132793 -1.734294
7.136785 -1.790085
7.140785 -1.827201
7.144787 -1.864375
7.148768 -1.904044
7.152787 -1.929392
7.156768 -1.921834
7.160865 -1.875899
7.164791 -1.796581
7.168830 -1.688674
7.172994 -1.553416
7.176784 -1.393624
7.180784 -1.218132
7.184822 -1.038634
7.188790 -0.861074
7.192789 -0.681781
7.196788 -0.494230
7.200800 -0.298819
7.204790 -0.104675
7.208795  0.077237
7.212788  0.240314
7.216788  0.380608
7.220788  0.493489
7.224788  0.578744
7.228798  0.647833
7.232790  0.717286
7.236788  0.790578
7.240795  0.852321
7.244788  0.886308
7.248788  0.896275
7.252964  0.902785
7.256785  0.920253
7.260793  0.943083
7.264787  0.957101
7.268785  0.959586
7.272787  0.960997
7.276785  0.967563
7.280794  0.970665
7.284793  0.959129
7.288787  0.937877
7.292949  0.926119
7.296790  0.935471
7.300780  0.956942
7.304786  0.973192
7.308780  0.977222
7.312793  0.974315
7.316786  0.970565
7.320788  0.965865
7.324786  0.958016
7.328786  0.948376
7.332793  0.938837
7.336786  0.924156
7.340786  0.893096
7.344788  0.842103
7.348786  0.785992
7.352787  0.747738
7.356766  0.734604
7.360767  0.729871
7.364796  0.712226
7.368786  0.678808
7.372785  0.644366
7.376788  0.621004
7.380767  0.605314
7.384766  0.586714
7.388798  0.563419
7.392931  0.544138
7.396788  0.533424
7.400788  0.522288
7.404795  0.499136
7.408788  0.465908
7.412788  0.435646
7.416788  0.414533
7.420788  0.393828
7.424795  0.362941
7.428788  0.325524
7.432789  0.296279
7.436788  0.282518
7.440788  0.276109
7.444788  0.266457
7.448797  0.253793
7.452798  0.243385
7.456769  0.233342
7.460796  0.218212
7.464772  0.201713
7.468790  0.195175
7.472791  0.203047
7.476780  0.217148
7.480787  0.224757
7.484794  0.218797
7.488922  0.202339
7.492786  0.184495
7.496786  0.170402
7.500786  0.157132
7.504793  0.141350
7.508786  0.127089
7.512786  0.121438
7.516786  0.124102
7.520798  0.125639
7.524791  0.116985
7.528788  0.098651
7.532788  0.079278
7.536795  0.066427
7.540788  0.061567
7.544788  0.064573
7.548795  0.078307
7.552788  0.102613
7.556788  0.124383
7.560795  0.121880
7.564790  0.085377
7.568784  0.031070
7.572786 -0.011897
7.576793 -0.029308
7.580786 -0.032386
7.584786 -0.040408
7.588786 -0.060126
7.592793 -0.086567
7.597095 -0.117307
7.600793 -0.155842
7.604786 -0.200679
7.608786 -0.239717
7.612786 -0.260537
7.616786 -0.264429
7.620795 -0.265978
7.624789 -0.276620
7.628788 -0.291519
7.632789 -0.297260
7.636787 -0.291517
7.640796 -0.288572
7.644787 -0.302056
7.648789 -0.327046
7.652787 -0.345390
7.656800 -0.347874
7.660962 -0.344887
7.664789 -0.352589
7.668796 -0.373535
7.672789 -0.396752
7.676790 -0.415074
7.680788 -0.433983
7.684788 -0.459282
7.688795 -0.483170
7.692788 -0.491355
7.696793 -0.481684
7.700786 -0.466589
7.704786 -0.454918
7.708800 -0.437575
7.712790 -0.396214
7.716788 -0.325144
7.720795 -0.239893
7.724788 -0.161517
7.728788 -0.096639
7.732788 -0.039395
7.736786  0.008660
7.740797  0.030865
7.744969  0.012288
7.748795 -0.042595
7.752787 -0.114937
7.756783 -0.190286
7.760792  0.048818
7.764766 -0.073643
7.768791 -0.179434
7.772844 -0.259395
7.776793 -0.318350
7.780786 -0.371764
7.784786 -0.430682
7.788786 -0.491000
7.792800 -0.541242
7.796798 -0.578144
7.800788 -0.608684
7.804788 -0.637678
7.808790 -0.660280
7.812793 -0.670142
7.816780 -0.671413
7.820786 -0.676908
7.824798 -0.691805
7.828780 -0.702595
7.832784 -0.689891
7.836792 -0.655711
7.840784 -0.633153
7.844784 -0.662962
7.848783 -0.758286
7.852785 -0.893594
7.856782 -1.034025
7.860792 -1.178599
7.864779 -1.359458
7.868782 -1.575245
7.872955 -1.725241
7.876791 -1.633727
7.880784 -1.164313
7.884784 -0.337543
7.888785  0.633810
7.892784  1.428561
7.896791  1.782852
7.900793  1.621381
7.904786  1.057397
7.908786  0.292131
7.912786 -0.483539
7.916794 -1.133621
7.920786 -1.583291
7.924786 -1.813019
7.928786 -1.849272
7.932786 -1.750831
7.936793 -1.589619
7.940786 -1.427754
7.944786 -1.298650
7.948786 -1.203217
7.952935 -1.124341
7.956793 -1.048587
7.960787 -0.977271
7.964789 -0.919259
7.968795 -0.877124
7.972789 -0.844327
7.976787 -0.815540
7.980789 -0.793860
7.984787 -0.782666
7.988796 -0.773907
7.992787 -0.753411
7.996789 -0.719022
8.000923 -0.685710
8.004790 -0.669426
8.008795 -0.670666
8.012788 -0.676446
8.016787 -0.674752
8.020788 -0.663928
8.024787 -0.650058
8.028796 -0.640087
8.032787 -0.639591
8.036789 -0.653162
8.040787 -0.680422
8.044882 -0.712361
8.048792 -0.738928
8.052848 -0.761482
8.056909 -0.791200
8.060771 -0.832537
8.064793 -0.873904
8.068772 -0.900119
8.072954 -0.910928
8.076787 -0.921500
8.080793 -0.946747
8.084787 -0.989276
8.088785 -1.040367
8.092787 -1.090412
8.096785 -1.140541
8.101165 -1.203816
8.104793 -1.291501
8.108786 -1.398805
8.112790 -1.508273
8.116793 -1.607446
8.120786 -1.698867
8.124794 -1.790756
8.128786 -1.882723
8.132786 -1.967024
8.136786 -2.042090
8.140800 -2.115647
8.144790 -2.190223
8.148788 -2.252075
8.152800 -2.282135
8.156791 -2.276428
8.160788 -2.248727
8.164788 -2.211143
8.168796 -2.157486
8.172959 -2.070783
8.176788 -1.944475
8.180788 -1.789186
8.184788 -1.618376
8.188795 -1.434648
8.192788 -1.234188
8.196788 -1.020761
8.200788 -0.809250
8.204788 -0.613382
8.208797 -0.433861
8.212788 -0.263418
8.216789 -0.101479
8.220788  0.043183
8.224788  0.165918
8.228795  0.275750
8.232789  0.385441
8.236788  0.493547
8.240788  0.582630
8.244788  0.638042
8.248796  0.665260
8.252788  0.685242
8.256788  0.713775
8.260788  0.749333
8.264789  0.782641
8.268796  0.813187
8.272788  0.849338
8.276788  0.893101
8.280788  0.932934
8.284788  0.955017
8.288795  0.957618
8.292788  0.951708
8.296788  0.949292
8.300788  0.953495
8.304788  0.960053
8.308800  0.965680
8.312791  0.971498
8.316788  0.978206
8.320789  0.981984
8.324787  0.978346
8.328796  0.967719
8.332788  0.952629
8.336790  0.931200
8.340787  0.901503
8.344895  0.871998
8.348789  0.856826
8.352784  0.858074
8.356790  0.859846
8.360792  0.841977
8.364842  0.799029
8.368791  0.747425
8.372792  0.711362
8.376763  0.698525
8.380796  0.693228
8.384959  0.676259
8.388785  0.646659
8.392787  0.619014
8.396800  0.602111
8.400790  0.587677
8.404788  0.563356
8.408788  0.531984
8.412801  0.510984
8.416788  0.511984
8.420788  0.526510
8.424795  0.535412
8.428788  0.529680
8.432788  0.516898
8.436788  0.507437
8.440788  0.501199
8.444795  0.492512
8.448788  0.483427
8.452788  0.483740
8.456788  0.495989
8.460787  0.507235
8.464796  0.502257
8.468787  0.483015
8.472790  0.468676
8.476788  0.474770
8.480789  0.497109
8.484795  0.518786
8.488790  0.528050
8.492787  0.524660
8.496789  0.512394
8.500787  0.493349
8.504796  0.472543
8.508787  0.462245
8.512924  0.473102
8.516787  0.499845
8.520973  0.522420
8.524793  0.525060
8.528787  0.510936
8.532785  0.494780
8.536802  0.484327
8.540792  0.475712
8.544788  0.467070
8.548788  0.467305
8.552788  0.485007
8.556795  0.512899
8.560797  0.530314
8.564788  0.522607
8.568795  0.495154
8.572795  0.466315
8.576788  0.448903
8.580798  0.441637
8.584790  0.436961
8.588788  0.431580
8.592782  0.426654
8.596795  0.420929
8.600786  0.409548
8.604785  0.392326
8.608787  0.379407
8.612785  0.382039
8.616799  0.396940
8.620853  0.406200
8.624781  0.396388
8.628794  0.373439
8.632786  0.353881
8.636788  0.344047
8.640767  0.335675
8.644794  0.323362
8.648788  0.315611
8.652788  0.319322
8.656791  0.320308
8.660806  0.292945
8.664974  0.232294
8.668788  0.168436
8.673008  0.140361
8.676786  0.157542
8.680794  0.195194
8.684765  0.225217
8.688768  0.241987
8.692786  0.257449
8.696781  0.281439
8.700768  0.314789
8.704766  0.358650
8.708827  0.420726
8.712855  0.506555
8.716788  0.607503
8.720793  0.703396
8.724786  0.778832
8.728786  0.833739
8.732794  0.876386
8.736786  0.909603
8.740786  0.926701
8.744787  0.918718
8.748786  0.882959
8.752795  0.824429
8.756786  0.750071
8.760785  0.663634
8.764787  0.568581
8.768785  0.474774
8.772794  0.396505
8.776785  0.340336
8.780787  0.298473
8.784787  0.258374
8.788787  0.216191
8.792793  0.176073
8.796787  0.137950
8.800793  0.093373
8.804794  0.038828
8.808785 -0.010330
8.812789 -0.029038
8.816784 -0.009871
8.820798  0.025445
8.824791  0.048050
8.828793  0.049994
8.832787  0.041598
8.836786  0.023468
8.840786 -0.026730
8.844786 -0.130881
8.848793 -0.277930
8.852786 -0.430653
8.856786 -0.573631
8.860786 -0.734937
8.864786 -0.928587
8.868793 -1.073073
8.872785 -0.996319
8.876801 -0.549505
8.880790  0.261749
8.884788  1.232669
8.888787  2.042912
8.892832  2.425564
8.896961  2.299319
8.900788  1.765733
8.904788  1.010322
8.908796  0.216776
8.912788 -0.467720
8.916788 -0.949030
8.920788 -1.200531
8.924795 -1.257732
8.928796 -1.186928
8.932788 -1.051286
8.936788 -0.898279
8.940787 -0.762938
8.944790 -0.665753
8.948797 -0.604223
8.952798 -0.556400
8.956796 -0.501841
8.960791 -0.441754
8.964837 -0.397501
8.968791 -0.388083
8.972787 -0.410491
8.976789 -0.443111
8.980848 -0.463454
8.984789 -0.459600
8.988794 -0.431771
8.992766 -0.389864
8.996784 -0.348560
9.000795 -0.320869
9.004785 -0.310344
9.008786 -0.305839
9.012787 -0.289610
9.016793 -0.256931
9.020787 -0.223459
9.024913 -0.206728
9.028795 -0.204753
9.033074 -0.201508
9.036794 -0.190927
9.040785 -0.185127
9.044787 -0.196955
9.048785 -0.222845
9.053129 -0.248825
9.056787 -0.269778
9.060787 -0.295589
9.064800 -0.336380
9.068790 -0.386952
9.072788 -0.432472
9.076788 -0.468787
9.080788 -0.508473
9.084796 -0.563068
9.088788 -0.627609
9.092788 -0.690090
9.096788 -0.751551
9.100790 -0.828083
9.104798 -0.931133
9.108960 -1.050486
9.112787 -1.161811
9.116789 -1.250912
9.120800 -1.325328
9.124790 -1.400503
9.128795 -1.480779
9.132789 -1.558593
9.136796 -1.628318
9.140790 -1.693864
9.144788 -1.759793
9.148788 -1.817883
9.152788 -1.848775
9.156795 -1.839105
9.160788 -1.791790
9.164788 -1.716165
9.168788 -1.613773
9.172788 -1.480865
9.176790 -1.322707
9.180798 -1.156489
9.184790 -0.996105
9.188789 -0.838457
9.192795 -0.669533
9.196928 -0.483502
9.200790 -0.292280
9.204788 -0.114353
9.208788  0.043873
9.212795  0.190982
9.216789  0.333542
9.220788  0.462659
9.224788  0.564372
9.228788  0.640557
9.232797  0.710940
9.236789  0.790724
9.240790  0.868868
9.244778  0.911260
9.248807  0.887175
9.252795  0.799851
9.256768  0.699221
9.260884  0.654499
9.264786  0.696366
9.268832  0.792565
9.272841  0.887773
9.276871  0.948290
9.280778  0.966818
9.284789  0.953660
9.288784  0.930945
9.292787  0.918256
9.296766  0.919077
9.300761  0.924619
9.304784  0.926920
9.308793  0.927113
9.312787  0.934207
9.316785  0.953849
9.320787  0.977964
9.324785  0.990899
9.328794  0.986172
9.332795  0.971532
9.336787  0.956644
9.340785  0.942109
9.344787  0.924480
9.348788  0.907111
9.352793  0.898132
9.356780  0.896494
9.360800  0.887299
9.364790  0.857231
9.368788  0.811447
9.372788  0.768489
9.376788  0.738933
9.380795  0.715394
9.384788  0.686359
9.388788  0.654830
9.392788  0.636160
9.396788  0.636932
9.400789  0.642900
9.404793  0.633073
9.408945  0.602473
9.412786  0.565145
9.416786  0.536152
9.420796  0.517479
9.424786  0.503028
9.428786  0.490560
9.432786  0.481673
9.436795  0.471035
9.440793  0.444762
9.444786  0.396486
9.448785  0.341413
9.452794  0.305761
9.456788  0.299964
9.460780  0.308002
9.464800  0.306968
9.468790  0.292299
9.472788  0.278151
9.476788  0.275788
9.481022  0.279393
9.484788  0.276023
9.488788  0.263914
9.492800  0.253317
9.496790  0.249069
9.500788  0.240344
9.504788  0.213320
9.508788  0.169979
9.512796  0.127825
9.516789  0.101365
9.520788  0.089193
9.524788  0.080844
9.528788  0.071381
9.532788  0.063971
9.536925  0.058982
9.540790  0.046781
9.544830  0.016832
9.548789 -0.026422
9.552872 -0.062213
9.556788 -0.072698
9.560792 -0.062939
9.564788 -0.058246
9.568791 -0.081685
9.572794 -0.136562
9.576791 -0.209005
9.580787 -0.280585
9.584789 -0.333992
9.588862 -0.353302
9.592794 -0.333206
9.596797 -0.291611
9.600924 -0.262235
9.604790 -0.267267
9.608919 -0.298880
9.612789 -0.329415
9.616793 -0.339172
9.620787 -0.332347
9.624785 -0.326213
9.628787 -0.330493
9.632786 -0.341807
9.636794 -0.355001
9.640785 -0.372626
9.645026 -0.399550
9.648785 -0.431476
9.652787 -0.455152
9.656791 -0.461894
9.660793 -0.456814
9.664787 -0.452121
9.668793 -0.454553
9.672787 -0.462448
9.676785 -0.472900
9.680788 -0.487266
9.684786 -0.508012
9.688795 -0.532964
9.692785 -0.557218
9.696787 -0.581440
9.700785 -0.613193
9.704787 -0.654963
9.708793 -0.692723
9.712786 -0.702716
9.716785 -0.671884
9.720954 -0.609045
9.724786 -0.535132
9.728794 -0.464502
9.732785 -0.397099
9.736787 -0.328100
9.740785 -0.261784
9.744796 -0.212079
9.748789 -0.189852
9.752789 -0.193263
9.756800 -0.210772
 9.760790 -0.085830
 9.764788 -0.235486
 9.768788 -0.367772
 9.772788 -0.466879
 9.776787 -0.532534
 9.780795 -0.588464
 9.784783 -0.663417
 9.788787 -0.760746
 9.792789 -0.854779
 9.796795 -0.919527
 9.800789 -0.953579
 9.804787 -0.973617
 9.808791 -0.991473
 9.812787 -1.005944
 9.816796 -1.014424
 9.820787 -1.022069
 9.824789 -1.034681
 9.828789 -1.049357
 9.832790 -1.059954
 9.836795 -1.067578
 9.840789 -1.076454
 9.844842 -1.085176
 9.848785 -1.096173
 9.852795 -1.129015
 9.856796 -1.206592
 9.860793 -1.328515
 9.864860 -1.475118
 9.868790 -1.639962
 9.872903 -1.835431
 9.877131 -2.043397
 9.880787 -2.162493
 9.884793 -2.025862
 9.888786 -1.499738
 9.892786 -0.603348
 9.896786  0.437234
 9.900786  1.272597
 9.904793  1.624467
 9.908792  1.437279
 9.912786  0.859309
 9.916765  0.105978
 9.920765 -0.647652
 9.924797 -1.285199
 9.928791 -1.730945
 9.932791 -1.953177
 9.936794 -1.979959
 9.940785 -1.887139
 9.944787 -1.754595
 9.948793 -1.627545
 9.952800 -1.512984
 9.956793 -1.404701
 9.960786 -1.305506
 9.964785 -1.224495
 9.968787 -1.160169
 9.972785 -1.097365
 9.976794 -1.024138
 9.980785 -0.945829
 9.984787 -0.878657
 9.988785 -0.833136
 9.992786 -0.807818
 9.996793 -0.796854
10.000786 -0.797040
10.004785 -0.804750
10.008788 -0.810702
10.012785 -0.804523
10.016793 -0.786221
10.020778 -0.769260
10.024780 -0.767901
10.028794 -0.781088
10.032785 -0.792186
10.036787 -0.786213
10.040785 -0.763873
10.044786 -0.736886
10.048924 -0.714617
10.052850 -0.699645
10.056788 -0.693229
10.060798 -0.699128
10.064790 -0.719564
10.068787 -0.748974
10.072788 -0.775955
10.076788 -0.794880
10.080796 -0.813665
10.084788 -0.845681
10.088786 -0.894717
10.092787 -0.952089
10.096788 -1.009004
10.100795 -1.067975
10.104789 -1.138891
10.108787 -1.225069
10.112789 -1.318119
10.116789 -1.408660
10.120798 -1.497229
10.124789 -1.590035
10.128784 -1.687769
10.132786 -1.785316
10.136786 -1.880322
10.140794 -1.973382
10.144938 -2.060907
10.148870 -2.137203
10.152836 -2.201629
10.156795 -2.255108
10.160802 -2.292316
10.164789 -2.303363
10.168853 -2.282062
10.172795 -2.230886
10.176880 -2.158523
10.180797 -2.071814
10.184795 -1.966980
10.188976 -1.829211
10.192783 -1.647291
10.196795 -1.430617
10.200785 -1.206829
10.204794 -1.000513
10.208966 -0.815043
10.212786 -0.634931
10.216786 -0.446313
10.221038 -0.254336
10.224786 -0.077244
10.228786  0.074304
10.232786  0.203696
10.236786  0.314063
10.240794  0.399083
10.244786  0.455356
10.248786  0.497179
10.252786  0.547961
10.256792  0.614834
10.260797  0.679387
10.264786  0.719582
10.268785  0.736889
10.272789  0.753801
10.276794  0.784716
10.280786  0.818979
10.284786  0.838376
10.288786  0.843276
10.292793  0.851410
10.296786  0.873846
10.300787  0.902090
10.304787  0.920388
10.308786  0.923745
10.312793  0.920014
10.316786  0.917723
10.320786  0.916979
10.324798  0.913511
10.328791  0.908244
10.332788  0.907693
10.336800  0.913055
10.340790  0.914083
10.344788  0.899935
10.348788  0.873582
10.352788  0.848198
10.356800  0.830226
10.360790  0.814428
10.364885  0.796724
10.368800  0.782443
10.372788  0.776820
10.376786  0.772949
10.380784  0.755880
10.384788  0.719876
10.388793  0.678226
10.392793  0.652116
10.396786  0.649720
10.400794  0.659049
10.404787  0.662112
10.408785  0.653796
10.412786  0.644133
10.416785  0.641686
10.420794  0.639305
10.424784  0.622500
10.428786  0.589619
10.432954  0.554518
10.436786  0.529032
10.440800  0.512900
10.444800  0.502147
10.448793  0.496243
10.452852  0.493039
10.456787  0.484303
10.460763  0.463138
10.464795  0.436171
10.468789  0.421943
10.472785  0.431161
10.476909  0.452055
10.480837  0.460476
10.484787  0.443117
10.488787  0.409919
10.492785  0.384793
10.496787  0.382661
10.500793  0.395984
10.504787  0.407700
10.508785  0.415478
10.512788  0.434997
10.516786  0.477325
10.520794  0.531530
10.524785  0.576129
10.528787  0.602436
10.532785  0.618381
10.536789  0.631696
10.540793  0.639265
10.544786  0.635955
10.548793  0.625712
10.552786  0.616917
10.556786  0.609795
10.560914  0.594782
10.564786  0.564712
10.568793  0.524973
10.572786  0.488426
10.576786  0.462875
10.580787  0.449879
10.584786  0.456567
10.588795  0.499586
10.592787  0.586635
10.596786  0.694248
10.600786  0.776041
10.604786  0.802131
10.608793  0.786187
10.612786  0.766430
10.616788  0.761920
10.620785  0.753015
10.624786  0.704737
10.628787  0.606538
10.632793  0.488713
10.636782  0.400731
10.640781  0.373509
10.644786  0.400262
10.648793  0.447571
10.652786  0.479240
10.656786  0.473619
10.660786  0.432926
10.664829  0.387213
10.668788  0.382699
10.672792  0.447157
10.676788  0.555834
10.680788  0.638661
10.684788  0.633268
10.688788  0.533623
10.692795  0.384835
10.696788  0.235467
10.700788  0.104112
10.704800 -0.007724
10.708790 -0.083442
10.712788 -0.085838
10.716788  0.014335
10.720790  0.210472
10.724796  0.461705
10.728788  0.715202
10.732797  0.923905
10.736766  1.052467
10.740795  1.083101
10.744789  1.026737
10.748787  0.925867
10.752851  0.832200
10.756792  0.767736
10.760791  0.707481
10.764787  0.608720
10.768791  0.459006
10.772839  0.289808
10.776791  0.143725
10.780791  0.039725
10.784786 -0.023797
10.788786 -0.045118
10.792786 -0.017920
10.796794  0.042414
10.800786  0.087780
10.804786  0.071809
10.808786 -0.002194
10.812786 -0.078756
10.816793 -0.101824
10.820786 -0.065094
10.824786 -0.009602
10.828786  0.022063
10.832786  0.024111
10.836794  0.023136
10.840786  0.042782
10.844788  0.078445
10.848787  0.102056
10.852786  0.078023
10.856788 -0.026419
10.860794 -0.226094
10.864780 -0.498840
10.868794 -0.793716
10.872785 -1.072991
10.876794 -1.332325
10.880785 -1.550997
10.884786 -1.621391
10.888786 -1.362432
10.892788 -0.643641
10.896793  0.473265
10.900786  1.700730
10.904785  2.652251
10.908787  3.051251
10.912785  2.855269
10.916794  2.208860
10.920785  1.319234
10.924787  0.389767
10.928785 -0.388866
10.932787 -0.876163
10.936787 -1.052968
10.940793 -1.034350
10.944793 -0.979162
10.948788 -0.975337
10.952859 -1.008469
10.956793 -1.021423
10.960786 -0.979807
10.964786 -0.885093
10.968786 -0.756943
10.972797 -0.618525
10.976798 -0.486850
10.980787 -0.367580
10.984796 -0.261780
10.988788 -0.179704
10.992790 -0.145040
10.996787 -0.178832
11.000788 -0.271620
11.004795 -0.372271
11.008789 -0.416046
11.012787 -0.374895
11.016789 -0.281859
11.020788 -0.202227
11.024798 -0.178142
11.028787 -0.199905
11.032789 -0.228171
11.036787 -0.240326
11.040789 -0.253050
11.044993 -0.298571
11.048791 -0.378824
11.052961 -0.449668
11.056908 -0.461866
11.060832 -0.417234
11.064787 -0.371850
11.068792 -0.382405
11.072894 -0.459091
11.076771 -0.568707
11.080841 -0.669171
11.084791 -0.733989
11.088795 -0.751255
11.092926 -0.714300
11.096768 -0.624515
11.100806 -0.504123
11.104786 -0.399598
11.108788 -0.364997
11.112795 -0.435679
11.116786 -0.611185
11.120786 -0.858158
11.124786 -1.130054
11.128788 -1.386334
11.132793 -1.597069
11.136785 -1.740540
11.140793 -1.807890
11.144787 -1.811875
11.148798 -1.784383
11.152780 -1.754720
11.156786 -1.724856
11.160794 -1.672704
11.164785 -1.587003
11.168786 -1.493220
11.172787 -1.433741
11.176794 -1.419409
11.180793 -1.408610
11.184787 -1.345428
11.188785 -1.220482
11.192787 -1.085767
11.196784 -1.004398
11.200768 -0.990214
11.204796 -1.000312
11.208787 -0.981112
11.212785 -0.913128
11.216786 -0.810543
11.220768 -0.689119
11.224765 -0.547874
11.228785 -0.380885
11.232794 -0.192205
11.236785  0.008938
11.240787  0.217802
11.244785  0.427781
11.248787  0.618704
11.252793  0.759792
11.256786  0.823407
11.260785  0.796560
11.264790  0.689120
11.268786  0.538387
11.272794  0.402051
11.276785  0.335506
11.280794  0.360845
11.284845  0.446614
11.288786  0.522019
11.292793  0.528079
11.296787  0.467941
11.300785  0.407123
11.304787  0.418685
11.308785  0.524014
11.312794  0.681314
11.316785  0.822783
11.320787  0.901894
11.324785  0.916055
11.328786  0.893984
11.332793  0.862849
11.336788  0.826414
11.340784  0.773557
11.344786  0.703009
11.348795  0.632831
11.352772  0.584155
11.356792  0.561856
11.360862  0.555062
11.364794  0.550296
11.368769  0.536914
11.372841  0.506514
11.376783  0.460988
11.380892  0.419363
11.384798  0.400695
11.388790  0.396586
11.392915  0.373894
11.396795  0.311120
11.400789  0.223978
11.404795  0.149479
11.408788  0.109811
11.412796  0.097596
11.416789  0.096758
11.420788  0.113221
11.424789  0.176718
11.428788  0.306244
11.432797  0.477366
11.436788  0.631365
11.440788  0.717421
11.444788  0.721857
11.448789  0.659153
11.452792  0.548133
11.456788  0.406865
11.460787  0.262415
11.464798  0.149702
11.468791  0.096266
11.472788  0.110325
11.476800  0.178833
11.480790  0.270599
11.484796  0.346799
11.488788  0.381590
11.492788  0.377574
11.496795  0.357497
11.500788  0.338848
11.504788  0.319232
11.508789  0.287647
11.512788  0.244688
11.516800  0.205661
11.520790  0.185014
11.524788  0.183150
11.528796  0.191457
11.532788  0.207274
11.536788  0.236336
11.540788  0.278652
11.544788  0.321671
11.548795  0.355189
11.552788  0.385999
11.556788  0.424658
11.560788  0.456604
11.564788  0.439970
11.568796  0.343366
11.572788  0.185433
11.576788  0.033993
11.580783 -0.037841
11.584875 -0.004200
11.588793  0.097617
11.592799  0.202597
11.596790  0.266555
11.600788  0.280502
11.604788  0.252273
11.608795  0.192217
11.612788  0.119298
11.616787  0.066610
11.620788  0.064587
11.624788  0.113984
11.628796  0.179594
11.632788  0.215289
11.636788  0.199783
11.640788  0.151657
11.644795  0.107797
11.648787  0.085298
11.652766  0.070486
11.656792  0.046060
11.660791  0.012395
11.665044 -0.028064
11.668788 -0.088231
11.672791 -0.173893
11.676787 -0.250543
11.680790 -0.259226
11.684789 -0.172440
11.688794 -0.020104
11.692796  0.142366
11.696980  0.278706
11.700789  0.384919
11.704827  0.476179
11.708796  0.570347
11.712793  0.673940
11.716787  0.770523
11.720794  0.821141
11.724788  0.785250
11.728785  0.652049
11.732787  0.456064
11.736785  0.259670
11.740794  0.114174
11.744785  0.029854
11.748787 -0.022789
11.752785 -0.082175
11.756960 -0.160582
